0,-0.095
0.002777778,-0.095
0.005555556,-0.095
0.008333333,-0.095
0.011111111,-0.095
0.013888889,-0.095
0.016666667,-0.095
0.019444444,-0.095
0.022222222,-0.11
0.025,-0.14
0.027777778,-0.14
0.030555556,-0.135
0.033333333,-0.115
0.036111111,-0.11
0.038888889,-0.135
0.041666667,-0.15
0.044444444,-0.18
0.047222222,-0.175
0.05,-0.16
0.052777778,-0.15
0.055555556,-0.16
0.058333333,-0.17
0.061111111,-0.185
0.063888889,-0.18
0.066666667,-0.175
0.069444444,-0.155
0.072222222,-0.17
0.075,-0.195
0.077777778,-0.21
0.080555556,-0.175
0.083333333,-0.145
0.086111111,-0.135
0.088888889,-0.125
0.091666667,-0.145
0.094444444,-0.165
0.097222222,-0.155
0.1,-0.135
0.102777778,-0.12
0.105555556,-0.11
0.108333333,-0.11
0.111111111,-0.125
0.113888889,-0.12
0.116666667,-0.12
0.119444444,-0.1
0.122222222,-0.03
0.125,0.075
0.127777778,0.2
0.130555556,0.315
0.133333333,0.405
0.136111111,0.48
0.138888889,0.57
0.141666667,0.66
0.144444444,0.815
0.147222222,1.005
0.15,1.24
0.152777778,1.465
0.155555556,1.7
0.158333333,1.91
0.161111111,2.055
0.163888889,2.1
0.166666667,2.045
0.169444444,1.85
0.172222222,1.47
0.175,1.045
0.177777778,0.745
0.180555556,0.595
0.183333333,0.5
0.186111111,0.465
0.188888889,0.435
0.191666667,0.415
0.194444444,0.395
0.197222222,0.375
0.2,0.35
0.202777778,0.3
0.205555556,0.245
0.208333333,0.18
0.211111111,0.135
0.213888889,0.115
0.216666667,0.115
0.219444444,0.075
0.222222222,0.025
0.225,-0.02
0.227777778,-0.07
0.230555556,-0.1
0.233333333,-0.13
0.236111111,-0.155
0.238888889,-0.2
0.241666667,-0.245
0.244444444,-0.275
0.247222222,-0.29
0.25,-0.285
0.252777778,-0.275
0.255555556,-0.29
0.258333333,-0.305
0.261111111,-0.325
0.263888889,-0.325
0.266666667,-0.32
0.269444444,-0.33
0.272222222,-0.34
0.275,-0.35
0.277777778,-0.35
0.280555556,-0.345
0.283333333,-0.34
0.286111111,-0.34
0.288888889,-0.35
0.291666667,-0.36
0.294444444,-0.365
0.297222222,-0.375
0.3,-0.375
0.302777778,-0.36
0.305555556,-0.365
0.308333333,-0.395
0.311111111,-0.39
0.313888889,-0.395
0.316666667,-0.385
0.319444444,-0.405
0.322222222,-0.42
0.325,-0.425
0.327777778,-0.44
0.330555556,-0.44
0.333333333,-0.44
0.336111111,-0.45
0.338888889,-0.465
0.341666667,-0.46
0.344444444,-0.49
0.347222222,-0.475
0.35,-0.465
0.352777778,-0.48
0.355555556,-0.51
0.358333333,-0.53
0.361111111,-0.555
0.363888889,-0.56
0.366666667,-0.525
0.369444444,-0.535
0.372222222,-0.56
0.375,-0.59
0.377777778,-0.62
0.380555556,-0.585
0.383333333,-0.57
0.386111111,-0.56
0.388888889,-0.575
0.391666667,-0.585
0.394444444,-0.595
0.397222222,-0.565
0.4,-0.54
0.402777778,-0.525
0.405555556,-0.51
0.408333333,-0.525
0.411111111,-0.515
0.413888889,-0.47
0.416666667,-0.445
0.419444444,-0.41
0.422222222,-0.4
0.425,-0.39
0.427777778,-0.37
0.430555556,-0.345
0.433333333,-0.3
0.436111111,-0.29
0.438888889,-0.25
0.441666667,-0.235
0.444444444,-0.23
0.447222222,-0.22
0.45,-0.19
0.452777778,-0.165
0.455555556,-0.16
0.458333333,-0.16
0.461111111,-0.165
0.463888889,-0.15
0.466666667,-0.15
0.469444444,-0.15
0.472222222,-0.155
0.475,-0.165
0.477777778,-0.16
0.480555556,-0.155
0.483333333,-0.15
0.486111111,-0.155
0.488888889,-0.155
0.491666667,-0.165
0.494444444,-0.16
0.497222222,-0.145
0.5,-0.165
0.502777778,-0.165
0.505555556,-0.17
0.508333333,-0.175
0.511111111,-0.175
0.513888889,-0.16
0.516666667,-0.155
0.519444444,-0.155
0.522222222,-0.17
0.525,-0.205
0.527777778,-0.195
0.530555556,-0.185
0.533333333,-0.165
0.536111111,-0.175
0.538888889,-0.19
0.541666667,-0.2
0.544444444,-0.205
0.547222222,-0.185
0.55,-0.165
0.552777778,-0.155
0.555555556,-0.17
0.558333333,-0.195
0.561111111,-0.215
0.563888889,-0.205
0.566666667,-0.195
0.569444444,-0.19
0.572222222,-0.19
0.575,-0.195
0.577777778,-0.205
0.580555556,-0.195
0.583333333,-0.185
0.586111111,-0.185
0.588888889,-0.195
0.591666667,-0.185
0.594444444,-0.205
0.597222222,-0.195
0.6,-0.2
0.602777778,-0.17
0.605555556,-0.175
0.608333333,-0.19
0.611111111,-0.195
0.613888889,-0.185
0.616666667,-0.17
0.619444444,-0.185
0.622222222,-0.18
0.625,-0.18
0.627777778,-0.175
0.630555556,-0.175
0.633333333,-0.165
0.636111111,-0.165
0.638888889,-0.18
0.641666667,-0.19
0.644444444,-0.2
0.647222222,-0.19
0.65,-0.16
0.652777778,-0.165
0.655555556,-0.2
0.658333333,-0.195
0.661111111,-0.195
0.663888889,-0.18
0.666666667,-0.18
0.669444444,-0.16
0.672222222,-0.185
0.675,-0.205
0.677777778,-0.205
0.680555556,-0.21
0.683333333,-0.185
0.686111111,-0.185
0.688888889,-0.19
0.691666667,-0.205
0.694444444,-0.22
0.697222222,-0.21
0.7,-0.19
0.702777778,-0.17
0.705555556,-0.18
0.708333333,-0.195
0.711111111,-0.21
0.713888889,-0.2
0.716666667,-0.185
0.719444444,-0.195
0.722222222,-0.185
0.725,-0.19
0.727777778,-0.19
0.730555556,-0.175
0.733333333,-0.17
0.736111111,-0.16
0.738888889,-0.175
0.741666667,-0.18
0.744444444,-0.175
0.747222222,-0.165
0.75,-0.145
0.752777778,-0.14
0.755555556,-0.15
0.758333333,-0.19
0.761111111,-0.185
0.763888889,-0.13
0.766666667,-0.09
0.769444444,-0.11
0.772222222,-0.105
0.775,-0.125
0.777777778,-0.14
0.780555556,-0.115
0.783333333,-0.1
0.786111111,-0.1
0.788888889,-0.105
0.791666667,-0.14
0.794444444,-0.16
0.797222222,-0.155
0.8,-0.145
0.802777778,-0.16
0.805555556,-0.16
0.808333333,-0.175
0.811111111,-0.17
0.813888889,-0.175
0.816666667,-0.15
0.819444444,-0.16
0.822222222,-0.175
0.825,-0.19
0.827777778,-0.205
0.830555556,-0.2
0.833333333,-0.19
0.836111111,-0.19
0.838888889,-0.205
0.841666667,-0.2
0.844444444,-0.205
0.847222222,-0.19
0.85,-0.18
0.852777778,-0.21
0.855555556,-0.215
0.858333333,-0.215
0.861111111,-0.23
0.863888889,-0.215
0.866666667,-0.195
0.869444444,-0.185
0.872222222,-0.195
0.875,-0.205
0.877777778,-0.21
0.880555556,-0.18
0.883333333,-0.155
0.886111111,-0.14
0.888888889,-0.15
0.891666667,-0.17
0.894444444,-0.175
0.897222222,-0.165
0.9,-0.145
0.902777778,-0.135
0.905555556,-0.135
0.908333333,-0.16
0.911111111,-0.17
0.913888889,-0.145
0.916666667,-0.075
0.919444444,0.055
0.922222222,0.18
0.925,0.275
0.927777778,0.36
0.930555556,0.46
0.933333333,0.565
0.936111111,0.67
0.938888889,0.795
0.941666667,0.92
0.944444444,1.06
0.947222222,1.24
0.95,1.42
0.952777778,1.635
0.955555556,1.805
0.958333333,1.95
0.961111111,2.05
0.963888889,2.085
0.966666667,2.025
0.969444444,1.86
0.972222222,1.545
0.975,1.185
0.977777778,0.87
0.980555556,0.695
0.983333333,0.6
0.986111111,0.555
0.988888889,0.495
0.991666667,0.46
0.994444444,0.435
0.997222222,0.42
1,0.415
1.002777778,0.39
1.005555556,0.33
1.008333333,0.26
1.011111111,0.22
1.013888889,0.185
1.016666667,0.16
1.019444444,0.115
1.022222222,0.06
1.025,0.01
1.027777778,-0.015
1.030555556,-0.05
1.033333333,-0.075
1.036111111,-0.115
1.038888889,-0.16
1.041666667,-0.21
1.044444444,-0.24
1.047222222,-0.265
1.05,-0.25
1.052777778,-0.285
1.055555556,-0.315
1.058333333,-0.36
1.061111111,-0.38
1.063888889,-0.38
1.066666667,-0.36
1.069444444,-0.355
1.072222222,-0.365
1.075,-0.385
1.077777778,-0.415
1.080555556,-0.415
1.083333333,-0.41
1.086111111,-0.415
1.088888889,-0.42
1.091666667,-0.43
1.094444444,-0.43
1.097222222,-0.42
1.1,-0.41
1.102777778,-0.425
1.105555556,-0.435
1.108333333,-0.47
1.111111111,-0.465
1.113888889,-0.46
1.116666667,-0.445
1.119444444,-0.44
1.122222222,-0.46
1.125,-0.48
1.127777778,-0.485
1.130555556,-0.485
1.133333333,-0.49
1.136111111,-0.485
1.138888889,-0.51
1.141666667,-0.535
1.144444444,-0.555
1.147222222,-0.55
1.15,-0.53
1.152777778,-0.515
1.155555556,-0.535
1.158333333,-0.57
1.161111111,-0.565
1.163888889,-0.575
1.166666667,-0.585
1.169444444,-0.585
1.172222222,-0.59
1.175,-0.615
1.177777778,-0.63
1.180555556,-0.645
1.183333333,-0.635
1.186111111,-0.64
1.188888889,-0.67
1.191666667,-0.675
1.194444444,-0.685
1.197222222,-0.66
1.2,-0.645
1.202777778,-0.66
1.205555556,-0.695
1.208333333,-0.71
1.211111111,-0.71
1.213888889,-0.685
1.216666667,-0.675
1.219444444,-0.665
1.222222222,-0.67
1.225,-0.675
1.227777778,-0.685
1.230555556,-0.675
1.233333333,-0.655
1.236111111,-0.625
1.238888889,-0.6
1.241666667,-0.62
1.244444444,-0.6
1.247222222,-0.575
1.25,-0.54
1.252777778,-0.53
1.255555556,-0.505
1.258333333,-0.495
1.261111111,-0.465
1.263888889,-0.43
1.266666667,-0.39
1.269444444,-0.355
1.272222222,-0.335
1.275,-0.33
1.277777778,-0.31
1.280555556,-0.27
1.283333333,-0.265
1.286111111,-0.26
1.288888889,-0.27
1.291666667,-0.27
1.294444444,-0.265
1.297222222,-0.235
1.3,-0.195
1.302777778,-0.195
1.305555556,-0.21
1.308333333,-0.235
1.311111111,-0.23
1.313888889,-0.22
1.316666667,-0.195
1.319444444,-0.195
1.322222222,-0.21
1.325,-0.22
1.327777778,-0.22
1.330555556,-0.21
1.333333333,-0.2
1.336111111,-0.205
1.338888889,-0.21
1.341666667,-0.21
1.344444444,-0.21
1.347222222,-0.215
1.35,-0.195
1.352777778,-0.195
1.355555556,-0.205
1.358333333,-0.215
1.361111111,-0.215
1.363888889,-0.21
1.366666667,-0.19
1.369444444,-0.205
1.372222222,-0.21
1.375,-0.22
1.377777778,-0.23
1.380555556,-0.215
1.383333333,-0.195
1.386111111,-0.195
1.388888889,-0.21
1.391666667,-0.235
1.394444444,-0.24
1.397222222,-0.235
1.4,-0.23
1.402777778,-0.215
1.405555556,-0.215
1.408333333,-0.23
1.411111111,-0.245
1.413888889,-0.24
1.416666667,-0.23
1.419444444,-0.23
1.422222222,-0.235
1.425,-0.255
1.427777778,-0.235
1.430555556,-0.24
1.433333333,-0.22
1.436111111,-0.235
1.438888889,-0.24
1.441666667,-0.24
1.444444444,-0.245
1.447222222,-0.22
1.45,-0.225
1.452777778,-0.215
1.455555556,-0.225
1.458333333,-0.24
1.461111111,-0.25
1.463888889,-0.235
1.466666667,-0.205
1.469444444,-0.2
1.472222222,-0.22
1.475,-0.225
1.477777778,-0.23
1.480555556,-0.215
1.483333333,-0.2
1.486111111,-0.2
1.488888889,-0.21
1.491666667,-0.21
1.494444444,-0.215
1.497222222,-0.21
1.5,-0.205
1.502777778,-0.2
1.505555556,-0.2
1.508333333,-0.21
1.511111111,-0.215
1.513888889,-0.205
1.516666667,-0.185
1.519444444,-0.2
1.522222222,-0.215
1.525,-0.225
1.527777778,-0.205
1.530555556,-0.195
1.533333333,-0.19
1.536111111,-0.185
1.538888889,-0.185
1.541666667,-0.21
1.544444444,-0.225
1.547222222,-0.225
1.55,-0.185
1.552777778,-0.18
1.555555556,-0.18
1.558333333,-0.215
1.561111111,-0.245
1.563888889,-0.23
1.566666667,-0.205
1.569444444,-0.185
1.572222222,-0.19
1.575,-0.205
1.577777778,-0.21
1.580555556,-0.19
1.583333333,-0.19
1.586111111,-0.185
1.588888889,-0.205
1.591666667,-0.21
1.594444444,-0.22
1.597222222,-0.205
1.6,-0.19
1.602777778,-0.19
1.605555556,-0.185
1.608333333,-0.2
1.611111111,-0.205
1.613888889,-0.175
1.616666667,-0.155
1.619444444,-0.135
1.622222222,-0.17
1.625,-0.165
1.627777778,-0.165
1.630555556,-0.15
1.633333333,-0.125
1.636111111,-0.11
1.638888889,-0.125
1.641666667,-0.13
1.644444444,-0.13
1.647222222,-0.125
1.65,-0.13
1.652777778,-0.125
1.655555556,-0.125
1.658333333,-0.14
1.661111111,-0.145
1.663888889,-0.125
1.666666667,-0.13
1.669444444,-0.145
1.672222222,-0.16
1.675,-0.18
1.677777778,-0.18
1.680555556,-0.18
1.683333333,-0.16
1.686111111,-0.14
1.688888889,-0.155
1.691666667,-0.17
1.694444444,-0.2
1.697222222,-0.205
1.7,-0.175
1.702777778,-0.19
1.705555556,-0.195
1.708333333,-0.215
1.711111111,-0.215
1.713888889,-0.215
1.716666667,-0.215
1.719444444,-0.215
1.722222222,-0.215
1.725,-0.22
1.727777778,-0.21
1.730555556,-0.195
1.733333333,-0.185
1.736111111,-0.195
1.738888889,-0.205
1.741666667,-0.21
1.744444444,-0.19
1.747222222,-0.165
1.75,-0.155
1.752777778,-0.155
1.755555556,-0.165
1.758333333,-0.18
1.761111111,-0.175
1.763888889,-0.16
1.766666667,-0.135
1.769444444,-0.13
1.772222222,-0.14
1.775,-0.15
1.777777778,-0.145
1.780555556,-0.145
1.783333333,-0.125
1.786111111,-0.105
1.788888889,-0.075
1.791666667,-0.035
1.794444444,0.065
1.797222222,0.185
1.8,0.31
1.802777778,0.41
1.805555556,0.515
1.808333333,0.595
1.811111111,0.705
1.813888889,0.83
1.816666667,0.975
1.819444444,1.125
1.822222222,1.265
1.825,1.43
1.827777778,1.63
1.830555556,1.84
1.833333333,2
1.836111111,2.065
1.838888889,2.05
1.841666667,1.955
1.844444444,1.775
1.847222222,1.52
1.85,1.205
1.852777778,0.905
1.855555556,0.67
1.858333333,0.52
1.861111111,0.445
1.863888889,0.44
1.866666667,0.455
1.869444444,0.45
1.872222222,0.41
1.875,0.365
1.877777778,0.315
1.880555556,0.265
1.883333333,0.225
1.886111111,0.195
1.888888889,0.145
1.891666667,0.1
1.894444444,0.065
1.897222222,0.035
1.9,-0.02
1.902777778,-0.06
1.905555556,-0.1
1.908333333,-0.15
1.911111111,-0.17
1.913888889,-0.205
1.916666667,-0.215
1.919444444,-0.23
1.922222222,-0.26
1.925,-0.31
1.927777778,-0.335
1.930555556,-0.315
1.933333333,-0.3
1.936111111,-0.315
1.938888889,-0.325
1.941666667,-0.34
1.944444444,-0.35
1.947222222,-0.33
1.95,-0.33
1.952777778,-0.345
1.955555556,-0.37
1.958333333,-0.385
1.961111111,-0.395
1.963888889,-0.36
1.966666667,-0.34
1.969444444,-0.345
1.972222222,-0.355
1.975,-0.385
1.977777778,-0.4
1.980555556,-0.405
1.983333333,-0.38
1.986111111,-0.39
1.988888889,-0.4
1.991666667,-0.41
1.994444444,-0.445
1.997222222,-0.43
2,-0.42
2.002777778,-0.42
2.005555556,-0.415
2.008333333,-0.435
2.011111111,-0.455
2.013888889,-0.45
2.016666667,-0.455
2.019444444,-0.45
2.022222222,-0.475
2.025,-0.495
2.027777778,-0.495
2.030555556,-0.505
2.033333333,-0.495
2.036111111,-0.51
2.038888889,-0.535
2.041666667,-0.55
2.044444444,-0.55
2.047222222,-0.55
2.05,-0.55
2.052777778,-0.56
2.055555556,-0.59
2.058333333,-0.62
2.061111111,-0.615
2.063888889,-0.62
2.066666667,-0.62
2.069444444,-0.615
2.072222222,-0.62
2.075,-0.635
2.077777778,-0.655
2.080555556,-0.65
2.083333333,-0.615
2.086111111,-0.6
2.088888889,-0.615
2.091666667,-0.62
2.094444444,-0.63
2.097222222,-0.615
2.1,-0.595
2.102777778,-0.565
2.105555556,-0.56
2.108333333,-0.54
2.111111111,-0.52
2.113888889,-0.495
2.116666667,-0.47
2.119444444,-0.435
2.122222222,-0.41
2.125,-0.39
2.127777778,-0.375
2.130555556,-0.35
2.133333333,-0.32
2.136111111,-0.28
2.138888889,-0.275
2.141666667,-0.27
2.144444444,-0.255
2.147222222,-0.225
2.15,-0.19
2.152777778,-0.185
2.155555556,-0.175
2.158333333,-0.195
2.161111111,-0.205
2.163888889,-0.18
2.166666667,-0.17
2.169444444,-0.15
2.172222222,-0.155
2.175,-0.16
2.177777778,-0.18
2.180555556,-0.18
2.183333333,-0.155
2.186111111,-0.15
2.188888889,-0.16
2.191666667,-0.16
2.194444444,-0.155
2.197222222,-0.17
2.2,-0.175
2.202777778,-0.14
2.205555556,-0.145
2.208333333,-0.155
2.211111111,-0.16
2.213888889,-0.16
2.216666667,-0.145
2.219444444,-0.145
2.222222222,-0.165
2.225,-0.17
2.227777778,-0.18
2.230555556,-0.175
2.233333333,-0.155
2.236111111,-0.145
2.238888889,-0.16
2.241666667,-0.18
2.244444444,-0.19
2.247222222,-0.18
2.25,-0.165
2.252777778,-0.155
2.255555556,-0.145
2.258333333,-0.17
2.261111111,-0.18
2.263888889,-0.175
2.266666667,-0.165
2.269444444,-0.16
2.272222222,-0.185
2.275,-0.195
2.277777778,-0.215
2.280555556,-0.18
2.283333333,-0.165
2.286111111,-0.17
2.288888889,-0.175
2.291666667,-0.18
2.294444444,-0.18
2.297222222,-0.18
2.3,-0.16
2.302777778,-0.15
2.305555556,-0.165
2.308333333,-0.19
2.311111111,-0.2
2.313888889,-0.185
2.316666667,-0.17
2.319444444,-0.16
2.322222222,-0.165
2.325,-0.19
2.327777778,-0.165
2.330555556,-0.17
2.333333333,-0.155
2.336111111,-0.15
2.338888889,-0.155
2.341666667,-0.165
2.344444444,-0.165
2.347222222,-0.165
2.35,-0.155
2.352777778,-0.15
2.355555556,-0.17
2.358333333,-0.19
2.361111111,-0.175
2.363888889,-0.165
2.366666667,-0.145
2.369444444,-0.145
2.372222222,-0.155
2.375,-0.175
2.377777778,-0.18
2.380555556,-0.175
2.383333333,-0.145
2.386111111,-0.15
2.388888889,-0.14
2.391666667,-0.18
2.394444444,-0.18
2.397222222,-0.18
2.4,-0.16
2.402777778,-0.15
2.405555556,-0.155
2.408333333,-0.165
2.411111111,-0.17
2.413888889,-0.165
2.416666667,-0.155
2.419444444,-0.145
2.422222222,-0.165
2.425,-0.18
2.427777778,-0.185
2.430555556,-0.175
2.433333333,-0.15
2.436111111,-0.15
2.438888889,-0.16
2.441666667,-0.175
2.444444444,-0.195
2.447222222,-0.155
2.45,-0.14
2.452777778,-0.125
2.455555556,-0.135
2.458333333,-0.18
2.461111111,-0.18
2.463888889,-0.165
2.466666667,-0.155
2.469444444,-0.16
2.472222222,-0.16
2.475,-0.155
2.477777778,-0.15
2.480555556,-0.145
2.483333333,-0.13
2.486111111,-0.13
2.488888889,-0.14
2.491666667,-0.145
2.494444444,-0.15
2.497222222,-0.12
2.5,-0.105
2.502777778,-0.085
2.505555556,-0.1
2.508333333,-0.1
2.511111111,-0.12
2.513888889,-0.105
2.516666667,-0.07
2.519444444,-0.075
2.522222222,-0.09
2.525,-0.1
2.527777778,-0.12
2.530555556,-0.115
2.533333333,-0.1
2.536111111,-0.115
2.538888889,-0.125
2.541666667,-0.13
2.544444444,-0.145
2.547222222,-0.155
2.55,-0.155
2.552777778,-0.145
2.555555556,-0.135
2.558333333,-0.155
2.561111111,-0.17
2.563888889,-0.17
2.566666667,-0.165
2.569444444,-0.165
2.572222222,-0.18
2.575,-0.19
2.577777778,-0.2
2.580555556,-0.185
2.583333333,-0.18
2.586111111,-0.175
2.588888889,-0.2
2.591666667,-0.205
2.594444444,-0.195
2.597222222,-0.195
2.6,-0.175
2.602777778,-0.165
2.605555556,-0.175
2.608333333,-0.19
2.611111111,-0.195
2.613888889,-0.185
2.616666667,-0.17
2.619444444,-0.16
2.622222222,-0.17
2.625,-0.17
2.627777778,-0.165
2.630555556,-0.15
2.633333333,-0.14
2.636111111,-0.125
2.638888889,-0.145
2.641666667,-0.145
2.644444444,-0.135
2.647222222,-0.135
2.65,-0.12
2.652777778,-0.125
2.655555556,-0.135
2.658333333,-0.15
2.661111111,-0.15
2.663888889,-0.07
2.666666667,0.02
2.669444444,0.12
2.672222222,0.225
2.675,0.29
2.677777778,0.365
2.680555556,0.45
2.683333333,0.53
2.686111111,0.6
2.688888889,0.685
2.691666667,0.805
2.694444444,0.965
2.697222222,1.17
2.7,1.39
2.702777778,1.605
2.705555556,1.8
2.708333333,1.92
2.711111111,1.955
2.713888889,1.92
2.716666667,1.76
2.719444444,1.5
2.722222222,1.15
2.725,0.845
2.727777778,0.645
2.730555556,0.57
2.733333333,0.535
2.736111111,0.495
2.738888889,0.485
2.741666667,0.435
2.744444444,0.395
2.747222222,0.365
2.75,0.35
2.752777778,0.295
2.755555556,0.235
2.758333333,0.165
2.761111111,0.14
2.763888889,0.085
2.766666667,0.08
2.769444444,0.03
2.772222222,-0.01
2.775,-0.12
2.777777778,-0.135
2.780555556,-0.13
2.783333333,-0.155
2.786111111,-0.195
2.788888889,-0.235
2.791666667,-0.27
2.794444444,-0.28
2.797222222,-0.29
2.8,-0.3
2.802777778,-0.305
2.805555556,-0.325
2.808333333,-0.33
2.811111111,-0.33
2.813888889,-0.32
2.816666667,-0.33
2.819444444,-0.345
2.822222222,-0.35
2.825,-0.36
2.827777778,-0.355
2.830555556,-0.355
2.833333333,-0.345
2.836111111,-0.36
2.838888889,-0.38
2.841666667,-0.405
2.844444444,-0.4
2.847222222,-0.39
2.85,-0.38
2.852777778,-0.385
2.855555556,-0.41
2.858333333,-0.44
2.861111111,-0.41
2.863888889,-0.395
2.866666667,-0.395
2.869444444,-0.4
2.872222222,-0.42
2.875,-0.435
2.877777778,-0.45
2.880555556,-0.45
2.883333333,-0.45
2.886111111,-0.455
2.888888889,-0.47
2.891666667,-0.475
2.894444444,-0.505
2.897222222,-0.485
2.9,-0.5
2.902777778,-0.49
2.905555556,-0.51
2.908333333,-0.52
2.911111111,-0.52
2.913888889,-0.52
2.916666667,-0.52
2.919444444,-0.54
2.922222222,-0.56
2.925,-0.58
2.927777778,-0.575
2.930555556,-0.58
2.933333333,-0.58
2.936111111,-0.595
2.938888889,-0.615
2.941666667,-0.625
2.944444444,-0.605
2.947222222,-0.595
2.95,-0.585
2.952777778,-0.61
2.955555556,-0.63
2.958333333,-0.63
2.961111111,-0.605
2.963888889,-0.575
2.966666667,-0.56
2.969444444,-0.555
2.972222222,-0.555
2.975,-0.555
2.977777778,-0.52
2.980555556,-0.49
2.983333333,-0.47
2.986111111,-0.43
2.988888889,-0.44
2.991666667,-0.425
2.994444444,-0.4
2.997222222,-0.375
3,-0.345
3.002777778,-0.315
3.005555556,-0.3
3.008333333,-0.29
3.011111111,-0.255
3.013888889,-0.23
3.016666667,-0.23
3.019444444,-0.21
3.022222222,-0.205
3.025,-0.205
3.027777778,-0.18
3.030555556,-0.185
3.033333333,-0.165
3.036111111,-0.18
3.038888889,-0.185
3.041666667,-0.175
3.044444444,-0.165
3.047222222,-0.14
3.05,-0.155
3.052777778,-0.155
3.055555556,-0.19
3.058333333,-0.18
3.061111111,-0.18
3.063888889,-0.16
3.066666667,-0.155
3.069444444,-0.16
3.072222222,-0.185
3.075,-0.185
3.077777778,-0.175
3.080555556,-0.16
3.083333333,-0.155
3.086111111,-0.165
3.088888889,-0.17
3.091666667,-0.19
3.094444444,-0.18
3.097222222,-0.17
3.1,-0.17
3.102777778,-0.18
3.105555556,-0.18
3.108333333,-0.19
3.111111111,-0.18
3.113888889,-0.165
3.116666667,-0.16
3.119444444,-0.165
3.122222222,-0.2
3.125,-0.205
3.127777778,-0.2
3.130555556,-0.17
3.133333333,-0.185
3.136111111,-0.17
3.138888889,-0.205
3.141666667,-0.2
3.144444444,-0.185
3.147222222,-0.17
3.15,-0.17
3.152777778,-0.175
3.155555556,-0.19
3.158333333,-0.2
3.161111111,-0.18
3.163888889,-0.19
3.166666667,-0.19
3.169444444,-0.185
3.172222222,-0.195
3.175,-0.2
3.177777778,-0.19
3.180555556,-0.175
3.183333333,-0.17
3.186111111,-0.19
3.188888889,-0.195
3.191666667,-0.2
3.194444444,-0.195
3.197222222,-0.175
3.2,-0.17
3.202777778,-0.185
3.205555556,-0.205
3.208333333,-0.205
3.211111111,-0.19
3.213888889,-0.17
3.216666667,-0.17
3.219444444,-0.17
3.222222222,-0.175
3.225,-0.175
3.227777778,-0.18
3.230555556,-0.17
3.233333333,-0.16
3.236111111,-0.155
3.238888889,-0.17
3.241666667,-0.165
3.244444444,-0.16
3.247222222,-0.16
3.25,-0.165
3.252777778,-0.16
3.255555556,-0.175
3.258333333,-0.19
3.261111111,-0.16
3.263888889,-0.15
3.266666667,-0.135
3.269444444,-0.145
3.272222222,-0.165
3.275,-0.175
3.277777778,-0.175
3.280555556,-0.165
3.283333333,-0.16
3.286111111,-0.165
3.288888889,-0.175
3.291666667,-0.18
3.294444444,-0.17
3.297222222,-0.175
3.3,-0.17
3.302777778,-0.165
3.305555556,-0.18
3.308333333,-0.18
3.311111111,-0.175
3.313888889,-0.175
3.316666667,-0.17
3.319444444,-0.17
3.322222222,-0.2
3.325,-0.19
3.327777778,-0.185
3.330555556,-0.16
3.333333333,-0.155
3.336111111,-0.145
3.338888889,-0.17
3.341666667,-0.185
3.344444444,-0.195
3.347222222,-0.165
3.35,-0.165
3.352777778,-0.145
3.355555556,-0.165
3.358333333,-0.17
3.361111111,-0.16
3.363888889,-0.15
3.366666667,-0.135
3.369444444,-0.135
3.372222222,-0.135
3.375,-0.15
3.377777778,-0.13
3.380555556,-0.12
3.383333333,-0.105
3.386111111,-0.115
3.388888889,-0.115
3.391666667,-0.145
3.394444444,-0.13
3.397222222,-0.105
3.4,-0.08
3.402777778,-0.095
3.405555556,-0.1
3.408333333,-0.12
3.411111111,-0.115
3.413888889,-0.105
3.416666667,-0.1
3.419444444,-0.1
3.422222222,-0.135
3.425,-0.16
3.427777778,-0.15
3.430555556,-0.13
3.433333333,-0.135
3.436111111,-0.125
3.438888889,-0.125
3.441666667,-0.14
3.444444444,-0.14
3.447222222,-0.145
3.45,-0.145
3.452777778,-0.16
3.455555556,-0.18
3.458333333,-0.18
3.461111111,-0.18
3.463888889,-0.18
3.466666667,-0.18
3.469444444,-0.18
3.472222222,-0.185
3.475,-0.18
3.477777778,-0.175
3.480555556,-0.14
3.483333333,-0.15
3.486111111,-0.17
3.488888889,-0.195
3.491666667,-0.21
3.494444444,-0.19
3.497222222,-0.165
3.5,-0.145
3.502777778,-0.14
3.505555556,-0.165
3.508333333,-0.165
3.511111111,-0.165
3.513888889,-0.15
3.516666667,-0.14
3.519444444,-0.125
3.522222222,-0.13
3.525,-0.14
3.527777778,-0.145
3.530555556,-0.125
3.533333333,-0.115
3.536111111,-0.115
3.538888889,-0.125
3.541666667,-0.13
3.544444444,-0.06
3.547222222,0.055
3.55,0.175
3.552777778,0.305
3.555555556,0.405
3.558333333,0.525
3.561111111,0.65
3.563888889,0.79
3.566666667,0.965
3.569444444,1.17
3.572222222,1.355
3.575,1.555
3.577777778,1.745
3.580555556,1.905
3.583333333,2
3.586111111,2.03
3.588888889,1.995
3.591666667,1.94
3.594444444,1.845
3.597222222,1.65
3.6,1.335
3.602777778,1
3.605555556,0.74
3.608333333,0.585
3.611111111,0.53
3.613888889,0.505
3.616666667,0.485
3.619444444,0.465
3.622222222,0.415
3.625,0.355
3.627777778,0.315
3.630555556,0.285
3.633333333,0.255
3.636111111,0.23
3.638888889,0.185
3.641666667,0.15
3.644444444,0.13
3.647222222,0.09
3.65,0.06
3.652777778,0
3.655555556,-0.055
3.658333333,-0.1
3.661111111,-0.135
3.663888889,-0.175
3.666666667,-0.195
3.669444444,-0.235
3.672222222,-0.265
3.675,-0.285
3.677777778,-0.29
3.680555556,-0.285
3.683333333,-0.28
3.686111111,-0.305
3.688888889,-0.33
3.691666667,-0.335
3.694444444,-0.345
3.697222222,-0.345
3.7,-0.32
3.702777778,-0.325
3.705555556,-0.35
3.708333333,-0.35
3.711111111,-0.375
3.713888889,-0.36
3.716666667,-0.355
3.719444444,-0.365
3.722222222,-0.37
3.725,-0.395
3.727777778,-0.39
3.730555556,-0.385
3.733333333,-0.4
3.736111111,-0.41
3.738888889,-0.41
3.741666667,-0.41
3.744444444,-0.395
3.747222222,-0.405
3.75,-0.4
3.752777778,-0.41
3.755555556,-0.445
3.758333333,-0.455
3.761111111,-0.45
3.763888889,-0.435
3.766666667,-0.44
3.769444444,-0.465
3.772222222,-0.47
3.775,-0.515
3.777777778,-0.51
3.780555556,-0.51
3.783333333,-0.5
3.786111111,-0.515
3.788888889,-0.52
3.791666667,-0.53
3.794444444,-0.52
3.797222222,-0.51
3.8,-0.515
3.802777778,-0.535
3.805555556,-0.555
3.808333333,-0.585
3.811111111,-0.575
3.813888889,-0.565
3.816666667,-0.575
3.819444444,-0.59
3.822222222,-0.625
3.825,-0.635
3.827777778,-0.63
3.830555556,-0.61
3.833333333,-0.615
3.836111111,-0.625
3.838888889,-0.66
3.841666667,-0.655
3.844444444,-0.65
3.847222222,-0.645
3.85,-0.64
3.852777778,-0.635
3.855555556,-0.635
3.858333333,-0.62
3.861111111,-0.62
3.863888889,-0.605
3.866666667,-0.595
3.869444444,-0.595
3.872222222,-0.59
3.875,-0.56
3.877777778,-0.535
3.880555556,-0.505
3.883333333,-0.485
3.886111111,-0.475
3.888888889,-0.465
3.891666667,-0.47
3.894444444,-0.42
3.897222222,-0.395
3.9,-0.365
3.902777778,-0.365
3.905555556,-0.34
3.908333333,-0.325
3.911111111,-0.305
3.913888889,-0.28
3.916666667,-0.26
3.919444444,-0.25
3.922222222,-0.225
3.925,-0.22
3.927777778,-0.2
3.930555556,-0.165
3.933333333,-0.15
3.936111111,-0.165
3.938888889,-0.16
3.941666667,-0.155
3.944444444,-0.145
3.947222222,-0.13
3.95,-0.12
3.952777778,-0.16
3.955555556,-0.16
3.958333333,-0.165
3.961111111,-0.16
3.963888889,-0.145
3.966666667,-0.125
3.969444444,-0.13
3.972222222,-0.145
3.975,-0.165
3.977777778,-0.155
3.980555556,-0.14
3.983333333,-0.13
3.986111111,-0.13
3.988888889,-0.15
3.991666667,-0.155
3.994444444,-0.15
3.997222222,-0.14
4,-0.145
4.002777778,-0.155
4.005555556,-0.165
4.008333333,-0.175
4.011111111,-0.15
4.013888889,-0.145
4.016666667,-0.135
4.019444444,-0.135
4.022222222,-0.16
4.025,-0.17
4.027777778,-0.165
4.030555556,-0.15
4.033333333,-0.135
4.036111111,-0.15
4.038888889,-0.155
4.041666667,-0.17
4.044444444,-0.165
4.047222222,-0.17
4.05,-0.135
4.052777778,-0.16
4.055555556,-0.16
4.058333333,-0.16
4.061111111,-0.15
4.063888889,-0.145
4.066666667,-0.145
4.069444444,-0.165
4.072222222,-0.17
4.075,-0.17
4.077777778,-0.16
4.080555556,-0.145
4.083333333,-0.13
4.086111111,-0.15
4.088888889,-0.175
4.091666667,-0.17
4.094444444,-0.17
4.097222222,-0.16
4.1,-0.15
4.102777778,-0.15
4.105555556,-0.16
4.108333333,-0.165
4.111111111,-0.16
4.113888889,-0.15
4.116666667,-0.145
4.119444444,-0.145
4.122222222,-0.18
4.125,-0.155
4.127777778,-0.15
4.130555556,-0.155
4.133333333,-0.13
4.136111111,-0.15
4.138888889,-0.17
4.141666667,-0.16
4.144444444,-0.14
4.147222222,-0.15
4.15,-0.135
4.152777778,-0.14
4.155555556,-0.145
4.158333333,-0.155
4.161111111,-0.15
4.163888889,-0.12
4.166666667,-0.1
4.169444444,-0.115
4.172222222,-0.135
4.175,-0.13
4.177777778,-0.13
4.180555556,-0.12
4.183333333,-0.13
4.186111111,-0.13
4.188888889,-0.13
4.191666667,-0.145
4.194444444,-0.135
4.197222222,-0.12
4.2,-0.125
4.202777778,-0.115
4.205555556,-0.14
4.208333333,-0.14
4.211111111,-0.135
4.213888889,-0.125
4.216666667,-0.125
4.219444444,-0.125
4.222222222,-0.14
4.225,-0.14
4.227777778,-0.13
4.230555556,-0.11
4.233333333,-0.08
4.236111111,-0.105
4.238888889,-0.105
4.241666667,-0.125
4.244444444,-0.13
4.247222222,-0.13
4.25,-0.09
4.252777778,-0.1
4.255555556,-0.105
4.258333333,-0.105
4.261111111,-0.09
4.263888889,-0.08
4.266666667,-0.07
4.269444444,-0.07
4.272222222,-0.08
4.275,-0.08
4.277777778,-0.09
4.280555556,-0.055
4.283333333,-0.045
4.286111111,-0.065
4.288888889,-0.07
4.291666667,-0.08
4.294444444,-0.065
4.297222222,-0.055
4.3,-0.045
4.302777778,-0.065
4.305555556,-0.095
4.308333333,-0.11
4.311111111,-0.1
4.313888889,-0.08
4.316666667,-0.075
4.319444444,-0.09
4.322222222,-0.115
4.325,-0.125
4.327777778,-0.125
4.330555556,-0.115
4.333333333,-0.11
4.336111111,-0.125
4.338888889,-0.14
4.341666667,-0.155
4.344444444,-0.145
4.347222222,-0.16
4.35,-0.16
4.352777778,-0.15
4.355555556,-0.16
4.358333333,-0.15
4.361111111,-0.155
4.363888889,-0.15
4.366666667,-0.145
4.369444444,-0.15
4.372222222,-0.16
4.375,-0.15
4.377777778,-0.16
4.380555556,-0.14
4.383333333,-0.13
4.386111111,-0.135
4.388888889,-0.135
4.391666667,-0.135
4.394444444,-0.125
4.397222222,-0.1
4.4,-0.095
4.402777778,-0.115
4.405555556,-0.12
4.408333333,-0.115
4.411111111,-0.1
4.413888889,-0.085
4.416666667,-0.08
4.419444444,-0.1
4.422222222,-0.11
4.425,-0.06
4.427777778,0.065
4.430555556,0.225
4.433333333,0.32
4.436111111,0.385
4.438888889,0.435
4.441666667,0.52
4.444444444,0.66
4.447222222,0.845
4.45,1.055
4.452777778,1.26
4.455555556,1.46
4.458333333,1.67
4.461111111,1.88
4.463888889,2.015
4.466666667,2.045
4.469444444,1.98
4.472222222,1.785
4.475,1.47
4.477777778,1.125
4.480555556,0.835
4.483333333,0.665
4.486111111,0.545
4.488888889,0.46
4.491666667,0.415
4.494444444,0.395
4.497222222,0.41
4.5,0.405
4.502777778,0.355
4.505555556,0.3
4.508333333,0.26
4.511111111,0.215
4.513888889,0.19
4.516666667,0.16
4.519444444,0.11
4.522222222,0.075
4.525,0.02
4.527777778,0.01
4.530555556,-0.025
4.533333333,-0.05
4.536111111,-0.085
4.538888889,-0.135
4.541666667,-0.17
4.544444444,-0.19
4.547222222,-0.2
4.55,-0.22
4.552777778,-0.245
4.555555556,-0.275
4.558333333,-0.3
4.561111111,-0.295
4.563888889,-0.29
4.566666667,-0.27
4.569444444,-0.29
4.572222222,-0.31
4.575,-0.335
4.577777778,-0.315
4.580555556,-0.305
4.583333333,-0.29
4.586111111,-0.32
4.588888889,-0.34
4.591666667,-0.34
4.594444444,-0.355
4.597222222,-0.335
4.6,-0.32
4.602777778,-0.335
4.605555556,-0.355
4.608333333,-0.36
4.611111111,-0.365
4.613888889,-0.365
4.616666667,-0.38
4.619444444,-0.365
4.622222222,-0.38
4.625,-0.38
4.627777778,-0.39
4.630555556,-0.39
4.633333333,-0.385
4.636111111,-0.39
4.638888889,-0.42
4.641666667,-0.42
4.644444444,-0.41
4.647222222,-0.42
4.65,-0.43
4.652777778,-0.445
4.655555556,-0.47
4.658333333,-0.475
4.661111111,-0.47
4.663888889,-0.465
4.666666667,-0.47
4.669444444,-0.505
4.672222222,-0.53
4.675,-0.53
4.677777778,-0.53
4.680555556,-0.51
4.683333333,-0.51
4.686111111,-0.525
4.688888889,-0.545
4.691666667,-0.565
4.694444444,-0.58
4.697222222,-0.57
4.7,-0.555
4.702777778,-0.56
4.705555556,-0.59
4.708333333,-0.6
4.711111111,-0.585
4.713888889,-0.57
4.716666667,-0.55
4.719444444,-0.54
4.722222222,-0.55
4.725,-0.54
4.727777778,-0.52
4.730555556,-0.495
4.733333333,-0.465
4.736111111,-0.46
4.738888889,-0.455
4.741666667,-0.435
4.744444444,-0.395
4.747222222,-0.37
4.75,-0.335
4.752777778,-0.32
4.755555556,-0.3
4.758333333,-0.275
4.761111111,-0.25
4.763888889,-0.205
4.766666667,-0.19
4.769444444,-0.18
4.772222222,-0.2
4.775,-0.175
4.777777778,-0.165
4.780555556,-0.145
4.783333333,-0.13
4.786111111,-0.115
4.788888889,-0.135
4.791666667,-0.14
4.794444444,-0.135
4.797222222,-0.12
4.8,-0.11
4.802777778,-0.115
4.805555556,-0.115
4.808333333,-0.14
4.811111111,-0.14
4.813888889,-0.12
4.816666667,-0.12
4.819444444,-0.13
4.822222222,-0.145
4.825,-0.13
4.827777778,-0.135
4.830555556,-0.13
4.833333333,-0.125
4.836111111,-0.125
4.838888889,-0.14
4.841666667,-0.15
4.844444444,-0.135
4.847222222,-0.12
4.85,-0.115
4.852777778,-0.135
4.855555556,-0.15
4.858333333,-0.16
4.861111111,-0.145
4.863888889,-0.13
4.866666667,-0.12
4.869444444,-0.135
4.872222222,-0.14
4.875,-0.16
4.877777778,-0.165
4.880555556,-0.145
4.883333333,-0.135
4.886111111,-0.135
4.888888889,-0.135
4.891666667,-0.145
4.894444444,-0.15
4.897222222,-0.145
4.9,-0.125
4.902777778,-0.125
4.905555556,-0.145
4.908333333,-0.145
4.911111111,-0.14
4.913888889,-0.12
4.916666667,-0.13
4.919444444,-0.145
4.922222222,-0.165
4.925,-0.15
4.927777778,-0.14
4.930555556,-0.135
4.933333333,-0.135
4.936111111,-0.14
4.938888889,-0.145
4.941666667,-0.16
4.944444444,-0.14
4.947222222,-0.13
4.95,-0.11
4.952777778,-0.125
4.955555556,-0.13
4.958333333,-0.145
4.961111111,-0.14
4.963888889,-0.115
4.966666667,-0.105
4.969444444,-0.12
4.972222222,-0.12
4.975,-0.14
4.977777778,-0.13
4.980555556,-0.12
4.983333333,-0.11
4.986111111,-0.11
4.988888889,-0.12
4.991666667,-0.12
4.994444444,-0.11
4.997222222,-0.105
5,-0.115
5.002777778,-0.115
5.005555556,-0.135
5.008333333,-0.135
5.011111111,-0.13
5.013888889,-0.105
5.016666667,-0.115
5.019444444,-0.125
5.022222222,-0.15
5.025,-0.14
5.027777778,-0.14
5.030555556,-0.115
5.033333333,-0.12
5.036111111,-0.12
5.038888889,-0.15
5.041666667,-0.155
5.044444444,-0.145
5.047222222,-0.135
5.05,-0.125
5.052777778,-0.115
5.055555556,-0.13
5.058333333,-0.135
5.061111111,-0.13
5.063888889,-0.12
5.066666667,-0.11
5.069444444,-0.11
5.072222222,-0.13
5.075,-0.125
5.077777778,-0.13
5.080555556,-0.115
5.083333333,-0.09
5.086111111,-0.085
5.088888889,-0.1
5.091666667,-0.1
5.094444444,-0.075
5.097222222,-0.065
5.1,-0.06
5.102777778,-0.07
5.105555556,-0.07
5.108333333,-0.065
5.111111111,-0.055
5.113888889,-0.05
5.116666667,-0.025
5.119444444,-0.05
5.122222222,-0.05
5.125,-0.06
5.127777778,-0.04
5.130555556,-0.035
5.133333333,-0.03
5.136111111,-0.07
5.138888889,-0.085
5.141666667,-0.1
5.144444444,-0.1
5.147222222,-0.08
5.15,-0.07
5.152777778,-0.075
5.155555556,-0.085
5.158333333,-0.125
5.161111111,-0.13
5.163888889,-0.125
5.166666667,-0.105
5.169444444,-0.125
5.172222222,-0.14
5.175,-0.155
5.177777778,-0.155
5.180555556,-0.165
5.183333333,-0.135
5.186111111,-0.135
5.188888889,-0.14
5.191666667,-0.14
5.194444444,-0.14
5.197222222,-0.135
5.2,-0.135
5.202777778,-0.145
5.205555556,-0.15
5.208333333,-0.165
5.211111111,-0.145
5.213888889,-0.135
5.216666667,-0.11
5.219444444,-0.11
5.222222222,-0.13
5.225,-0.12
5.227777778,-0.1
5.230555556,-0.09
5.233333333,-0.085
5.236111111,-0.085
5.238888889,-0.09
5.241666667,-0.1
5.244444444,-0.08
5.247222222,-0.06
5.25,-0.015
5.252777778,0.045
5.255555556,0.155
5.258333333,0.28
5.261111111,0.385
5.263888889,0.5
5.266666667,0.605
5.269444444,0.715
5.272222222,0.86
5.275,1.04
5.277777778,1.23
5.280555556,1.385
5.283333333,1.54
5.286111111,1.67
5.288888889,1.815
5.291666667,1.96
5.294444444,2.06
5.297222222,2.075
5.3,2.005
5.302777778,1.795
5.305555556,1.455
5.308333333,1.1
5.311111111,0.805
5.313888889,0.655
5.316666667,0.585
5.319444444,0.535
5.322222222,0.51
5.325,0.47
5.327777778,0.445
5.330555556,0.42
5.333333333,0.39
5.336111111,0.34
5.338888889,0.29
5.341666667,0.25
5.344444444,0.19
5.347222222,0.165
5.35,0.115
5.352777778,0.07
5.355555556,0.005
5.358333333,-0.055
5.361111111,-0.065
5.363888889,-0.105
5.366666667,-0.13
5.369444444,-0.185
5.372222222,-0.23
5.375,-0.24
5.377777778,-0.265
5.380555556,-0.255
5.383333333,-0.27
5.386111111,-0.255
5.388888889,-0.285
5.391666667,-0.305
5.394444444,-0.31
5.397222222,-0.3
5.4,-0.295
5.402777778,-0.315
5.405555556,-0.33
5.408333333,-0.335
5.411111111,-0.335
5.413888889,-0.31
5.416666667,-0.305
5.419444444,-0.33
5.422222222,-0.35
5.425,-0.365
5.427777778,-0.35
5.430555556,-0.355
5.433333333,-0.36
5.436111111,-0.375
5.438888889,-0.38
5.441666667,-0.375
5.444444444,-0.375
5.447222222,-0.375
5.45,-0.365
5.452777778,-0.385
5.455555556,-0.41
5.458333333,-0.42
5.461111111,-0.41
5.463888889,-0.4
5.466666667,-0.4
5.469444444,-0.425
5.472222222,-0.46
5.475,-0.465
5.477777778,-0.45
5.480555556,-0.44
5.483333333,-0.43
5.486111111,-0.455
5.488888889,-0.475
5.491666667,-0.5
5.494444444,-0.495
5.497222222,-0.49
5.5,-0.49
5.502777778,-0.5
5.505555556,-0.52
5.508333333,-0.545
5.511111111,-0.545
5.513888889,-0.54
5.516666667,-0.535
5.519444444,-0.545
5.522222222,-0.565
5.525,-0.58
5.527777778,-0.585
5.530555556,-0.575
5.533333333,-0.565
5.536111111,-0.55
5.538888889,-0.57
5.541666667,-0.575
5.544444444,-0.57
5.547222222,-0.565
5.55,-0.55
5.552777778,-0.53
5.555555556,-0.525
5.558333333,-0.515
5.561111111,-0.48
5.563888889,-0.44
5.566666667,-0.43
5.569444444,-0.425
5.572222222,-0.4
5.575,-0.38
5.577777778,-0.345
5.580555556,-0.315
5.583333333,-0.29
5.586111111,-0.315
5.588888889,-0.28
5.591666667,-0.275
5.594444444,-0.24
5.597222222,-0.2
5.6,-0.18
5.602777778,-0.185
5.605555556,-0.2
5.608333333,-0.205
5.611111111,-0.175
5.613888889,-0.16
5.616666667,-0.125
5.619444444,-0.135
5.622222222,-0.155
5.625,-0.155
5.627777778,-0.16
5.630555556,-0.145
5.633333333,-0.14
5.636111111,-0.145
5.638888889,-0.15
5.641666667,-0.165
5.644444444,-0.155
5.647222222,-0.15
5.65,-0.145
5.652777778,-0.16
5.655555556,-0.17
5.658333333,-0.16
5.661111111,-0.145
5.663888889,-0.13
5.666666667,-0.135
5.669444444,-0.155
5.672222222,-0.16
5.675,-0.15
5.677777778,-0.14
5.680555556,-0.13
5.683333333,-0.13
5.686111111,-0.16
5.688888889,-0.16
5.691666667,-0.175
5.694444444,-0.16
5.697222222,-0.15
5.7,-0.14
5.702777778,-0.14
5.705555556,-0.165
5.708333333,-0.18
5.711111111,-0.19
5.713888889,-0.17
5.716666667,-0.155
5.719444444,-0.16
5.722222222,-0.175
5.725,-0.21
5.727777778,-0.19
5.730555556,-0.18
5.733333333,-0.16
5.736111111,-0.17
5.738888889,-0.185
5.741666667,-0.18
5.744444444,-0.165
5.747222222,-0.165
5.75,-0.155
5.752777778,-0.185
5.755555556,-0.19
5.758333333,-0.19
5.761111111,-0.175
5.763888889,-0.165
5.766666667,-0.165
5.769444444,-0.185
5.772222222,-0.195
5.775,-0.195
5.777777778,-0.165
5.780555556,-0.145
5.783333333,-0.145
5.786111111,-0.15
5.788888889,-0.185
5.791666667,-0.195
5.794444444,-0.185
5.797222222,-0.18
5.8,-0.17
5.802777778,-0.155
5.805555556,-0.17
5.808333333,-0.18
5.811111111,-0.18
5.813888889,-0.16
5.816666667,-0.145
5.819444444,-0.16
5.822222222,-0.165
5.825,-0.18
5.827777778,-0.17
5.830555556,-0.18
5.833333333,-0.16
5.836111111,-0.175
5.838888889,-0.175
5.841666667,-0.165
5.844444444,-0.155
5.847222222,-0.15
5.85,-0.13
5.852777778,-0.14
5.855555556,-0.15
5.858333333,-0.13
5.861111111,-0.11
5.863888889,-0.105
5.866666667,-0.09
5.869444444,-0.075
5.872222222,-0.06
5.875,-0.05
5.877777778,-0.025
5.880555556,0.01
5.883333333,0.055
5.886111111,0.085
5.888888889,0.1
5.891666667,0.15
5.894444444,0.225
5.897222222,0.335
5.9,0.425
5.902777778,0.535
5.905555556,0.58
5.908333333,0.61
5.911111111,0.665
5.913888889,0.74
5.916666667,0.785
5.919444444,0.85
5.922222222,0.89
5.925,0.93
5.927777778,0.975
5.930555556,0.99
5.933333333,1.005
5.936111111,0.975
5.938888889,0.93
5.941666667,0.845
5.944444444,0.67
5.947222222,0.325
5.95,-0.11
5.952777778,-0.61
5.955555556,-1.01
5.958333333,-1.295
5.961111111,-1.465
5.963888889,-1.6
5.966666667,-1.675
5.969444444,-1.72
5.972222222,-1.71
5.975,-1.66
5.977777778,-1.625
5.980555556,-1.575
5.983333333,-1.53
5.986111111,-1.45
5.988888889,-1.38
5.991666667,-1.335
5.994444444,-1.315
5.997222222,-1.28
6,-1.23
6.002777778,-1.185
6.005555556,-1.165
6.008333333,-1.135
6.011111111,-1.095
6.013888889,-1.05
6.016666667,-1.02
6.019444444,-1.03
6.022222222,-1.03
6.025,-1.035
6.027777778,-1.025
6.030555556,-0.98
6.033333333,-0.935
6.036111111,-0.87
6.038888889,-0.81
6.041666667,-0.735
6.044444444,-0.64
6.047222222,-0.535
6.05,-0.46
6.052777778,-0.36
6.055555556,-0.305
6.058333333,-0.265
6.061111111,-0.23
6.063888889,-0.195
6.066666667,-0.155
6.069444444,-0.14
6.072222222,-0.115
6.075,-0.105
6.077777778,-0.09
6.080555556,-0.06
6.083333333,-0.05
6.086111111,-0.05
6.088888889,-0.025
6.091666667,-0.02
6.094444444,-0.005
6.097222222,0.03
6.1,0.055
6.102777778,0.07
6.105555556,0.075
6.108333333,0.075
6.111111111,0.085
6.113888889,0.105
6.116666667,0.11
6.119444444,0.135
6.122222222,0.165
6.125,0.19
6.127777778,0.22
6.130555556,0.245
6.133333333,0.27
6.136111111,0.29
6.138888889,0.31
6.141666667,0.34
6.144444444,0.38
6.147222222,0.415
6.15,0.44
6.152777778,0.475
6.155555556,0.48
6.158333333,0.515
6.161111111,0.535
6.163888889,0.575
6.166666667,0.6
6.169444444,0.63
6.172222222,0.65
6.175,0.675
6.177777778,0.695
6.180555556,0.75
6.183333333,0.785
6.186111111,0.795
6.188888889,0.805
6.191666667,0.81
6.194444444,0.84
6.197222222,0.875
6.2,0.89
6.202777778,0.885
6.205555556,0.87
6.208333333,0.855
6.211111111,0.855
6.213888889,0.88
6.216666667,0.89
6.219444444,0.87
6.222222222,0.835
6.225,0.8
6.227777778,0.795
6.230555556,0.795
6.233333333,0.765
6.236111111,0.745
6.238888889,0.7
6.241666667,0.655
6.244444444,0.63
6.247222222,0.625
6.25,0.605
6.252777778,0.565
6.255555556,0.515
6.258333333,0.465
6.261111111,0.43
6.263888889,0.4
6.266666667,0.365
6.269444444,0.31
6.272222222,0.265
6.275,0.22
6.277777778,0.18
6.280555556,0.155
6.283333333,0.13
6.286111111,0.105
6.288888889,0.075
6.291666667,0.03
6.294444444,-0.01
6.297222222,0.01
6.3,-0.01
6.302777778,-0.02
6.305555556,-0.04
6.308333333,-0.06
6.311111111,-0.065
6.313888889,-0.065
6.316666667,-0.075
6.319444444,-0.085
6.322222222,-0.105
6.325,-0.125
6.327777778,-0.105
6.330555556,-0.095
6.333333333,-0.095
6.336111111,-0.12
6.338888889,-0.13
6.341666667,-0.13
6.344444444,-0.135
6.347222222,-0.105
6.35,-0.105
6.352777778,-0.13
6.355555556,-0.145
6.358333333,-0.165
6.361111111,-0.165
6.363888889,-0.135
6.366666667,-0.14
6.369444444,-0.14
6.372222222,-0.16
6.375,-0.17
6.377777778,-0.175
6.380555556,-0.16
6.383333333,-0.14
6.386111111,-0.165
6.388888889,-0.16
6.391666667,-0.175
6.394444444,-0.18
6.397222222,-0.155
6.4,-0.145
6.402777778,-0.14
6.405555556,-0.16
6.408333333,-0.18
6.411111111,-0.19
6.413888889,-0.18
6.416666667,-0.18
6.419444444,-0.18
6.422222222,-0.17
6.425,-0.17
6.427777778,-0.165
6.430555556,-0.175
6.433333333,-0.185
6.436111111,-0.18
6.438888889,-0.19
6.441666667,-0.185
6.444444444,-0.17
6.447222222,-0.16
6.45,-0.17
6.452777778,-0.18
6.455555556,-0.205
6.458333333,-0.19
6.461111111,-0.17
6.463888889,-0.155
6.466666667,-0.155
6.469444444,-0.155
6.472222222,-0.17
6.475,-0.185
6.477777778,-0.18
6.480555556,-0.175
6.483333333,-0.165
6.486111111,-0.175
6.488888889,-0.19
6.491666667,-0.2
6.494444444,-0.205
6.497222222,-0.185
6.5,-0.175
6.502777778,-0.17
6.505555556,-0.175
6.508333333,-0.195
6.511111111,-0.195
6.513888889,-0.185
6.516666667,-0.17
6.519444444,-0.17
6.522222222,-0.18
6.525,-0.2
6.527777778,-0.2
6.530555556,-0.185
6.533333333,-0.17
6.536111111,-0.18
6.538888889,-0.18
6.541666667,-0.18
6.544444444,-0.18
6.547222222,-0.17
6.55,-0.17
6.552777778,-0.18
6.555555556,-0.195
6.558333333,-0.215
6.561111111,-0.205
6.563888889,-0.19
6.566666667,-0.18
6.569444444,-0.18
6.572222222,-0.19
6.575,-0.2
6.577777778,-0.185
6.580555556,-0.175
6.583333333,-0.175
6.586111111,-0.185
6.588888889,-0.22
6.591666667,-0.215
6.594444444,-0.21
6.597222222,-0.175
6.6,-0.17
6.602777778,-0.18
6.605555556,-0.19
6.608333333,-0.215
6.611111111,-0.21
6.613888889,-0.185
6.616666667,-0.18
6.619444444,-0.18
6.622222222,-0.195
6.625,-0.215
6.627777778,-0.2
6.630555556,-0.185
6.633333333,-0.16
6.636111111,-0.16
6.638888889,-0.175
6.641666667,-0.185
6.644444444,-0.185
6.647222222,-0.175
6.65,-0.16
6.652777778,-0.165
6.655555556,-0.19
6.658333333,-0.185
6.661111111,-0.185
6.663888889,-0.17
6.666666667,-0.17
6.669444444,-0.17
6.672222222,-0.17
6.675,-0.185
6.677777778,-0.185
6.680555556,-0.17
6.683333333,-0.165
6.686111111,-0.16
6.688888889,-0.165
6.691666667,-0.16
6.694444444,-0.135
6.697222222,-0.115
6.7,-0.095
6.702777778,-0.115
6.705555556,-0.12
6.708333333,-0.13
6.711111111,-0.115
6.713888889,-0.1
6.716666667,-0.09
6.719444444,-0.1
6.722222222,-0.1
6.725,-0.105
6.727777778,-0.09
6.730555556,-0.08
6.733333333,-0.07
6.736111111,-0.09
6.738888889,-0.11
6.741666667,-0.11
6.744444444,-0.1
6.747222222,-0.1
6.75,-0.075
6.752777778,-0.105
6.755555556,-0.14
6.758333333,-0.17
6.761111111,-0.16
6.763888889,-0.14
6.766666667,-0.14
6.769444444,-0.165
6.772222222,-0.175
6.775,-0.19
6.777777778,-0.185
6.780555556,-0.18
6.783333333,-0.18
6.786111111,-0.165
6.788888889,-0.165
6.791666667,-0.18
6.794444444,-0.19
6.797222222,-0.17
6.8,-0.175
6.802777778,-0.175
6.805555556,-0.175
6.808333333,-0.185
6.811111111,-0.175
6.813888889,-0.165
6.816666667,-0.15
6.819444444,-0.165
6.822222222,-0.17
6.825,-0.17
6.827777778,-0.155
6.830555556,-0.135
6.833333333,-0.125
6.836111111,-0.13
6.838888889,-0.145
6.841666667,-0.155
6.844444444,-0.125
6.847222222,-0.06
6.85,0.055
6.852777778,0.175
6.855555556,0.265
6.858333333,0.38
6.861111111,0.515
6.863888889,0.655
6.866666667,0.83
6.869444444,1.025
6.872222222,1.23
6.875,1.44
6.877777778,1.66
6.880555556,1.87
6.883333333,2.01
6.886111111,2.07
6.888888889,2.085
6.891666667,2.045
6.894444444,1.97
6.897222222,1.75
6.9,1.375
6.902777778,0.95
6.905555556,0.625
6.908333333,0.47
6.911111111,0.425
6.913888889,0.4
6.916666667,0.385
6.919444444,0.345
6.922222222,0.27
6.925,0.225
6.927777778,0.18
6.930555556,0.16
6.933333333,0.12
6.936111111,0.085
6.938888889,0.06
6.941666667,0.03
6.944444444,0.01
6.947222222,-0.005
6.95,-0.045
6.952777778,-0.115
6.955555556,-0.155
6.958333333,-0.195
6.961111111,-0.215
6.963888889,-0.23
6.966666667,-0.255
6.969444444,-0.29
6.972222222,-0.335
6.975,-0.345
6.977777778,-0.33
6.980555556,-0.31
6.983333333,-0.305
6.986111111,-0.33
6.988888889,-0.355
6.991666667,-0.395
6.994444444,-0.405
6.997222222,-0.38
7,-0.365
7.002777778,-0.375
7.005555556,-0.385
7.008333333,-0.405
7.011111111,-0.4
7.013888889,-0.39
7.016666667,-0.38
7.019444444,-0.39
7.022222222,-0.415
7.025,-0.425
7.027777778,-0.42
7.030555556,-0.405
7.033333333,-0.39
7.036111111,-0.4
7.038888889,-0.425
7.041666667,-0.425
7.044444444,-0.445
7.047222222,-0.44
7.05,-0.44
7.052777778,-0.45
7.055555556,-0.475
7.058333333,-0.47
7.061111111,-0.465
7.063888889,-0.475
7.066666667,-0.485
7.069444444,-0.495
7.072222222,-0.505
7.075,-0.525
7.077777778,-0.505
7.080555556,-0.5
7.083333333,-0.515
7.086111111,-0.545
7.088888889,-0.57
7.091666667,-0.575
7.094444444,-0.565
7.097222222,-0.555
7.1,-0.58
7.102777778,-0.595
7.105555556,-0.61
7.108333333,-0.63
7.111111111,-0.62
7.113888889,-0.605
7.116666667,-0.605
7.119444444,-0.63
7.122222222,-0.65
7.125,-0.645
7.127777778,-0.65
7.130555556,-0.62
7.133333333,-0.6
7.136111111,-0.6
7.138888889,-0.61
7.141666667,-0.61
7.144444444,-0.58
7.147222222,-0.54
7.15,-0.5
7.152777778,-0.49
7.155555556,-0.48
7.158333333,-0.46
7.161111111,-0.45
7.163888889,-0.41
7.166666667,-0.375
7.169444444,-0.35
7.172222222,-0.335
7.175,-0.33
7.177777778,-0.3
7.180555556,-0.27
7.183333333,-0.23
7.186111111,-0.205
7.188888889,-0.2
7.191666667,-0.2
7.194444444,-0.18
7.197222222,-0.155
7.2,-0.16
7.202777778,-0.14
7.205555556,-0.145
7.208333333,-0.15
7.211111111,-0.16
7.213888889,-0.145
7.216666667,-0.14
7.219444444,-0.135
7.222222222,-0.16
7.225,-0.155
7.227777778,-0.155
7.230555556,-0.145
7.233333333,-0.13
7.236111111,-0.16
7.238888889,-0.17
7.241666667,-0.175
7.244444444,-0.16
7.247222222,-0.155
7.25,-0.15
7.252777778,-0.165
7.255555556,-0.185
7.258333333,-0.185
7.261111111,-0.18
7.263888889,-0.16
7.266666667,-0.155
7.269444444,-0.145
7.272222222,-0.18
7.275,-0.19
7.277777778,-0.17
7.280555556,-0.155
7.283333333,-0.135
7.286111111,-0.16
7.288888889,-0.18
7.291666667,-0.19
7.294444444,-0.165
7.297222222,-0.155
7.3,-0.14
7.302777778,-0.15
7.305555556,-0.16
7.308333333,-0.185
7.311111111,-0.165
7.313888889,-0.145
7.316666667,-0.14
7.319444444,-0.14
7.322222222,-0.155
7.325,-0.15
7.327777778,-0.17
7.330555556,-0.16
7.333333333,-0.15
7.336111111,-0.155
7.338888889,-0.145
7.341666667,-0.145
7.344444444,-0.15
7.347222222,-0.135
7.35,-0.13
7.352777778,-0.13
7.355555556,-0.135
7.358333333,-0.14
7.361111111,-0.14
7.363888889,-0.12
7.366666667,-0.12
7.369444444,-0.13
7.372222222,-0.15
7.375,-0.165
7.377777778,-0.155
7.380555556,-0.135
7.383333333,-0.14
7.386111111,-0.135
7.388888889,-0.17
7.391666667,-0.155
7.394444444,-0.15
7.397222222,-0.145
7.4,-0.125
7.402777778,-0.145
7.405555556,-0.155
7.408333333,-0.165
7.411111111,-0.165
7.413888889,-0.155
7.416666667,-0.135
7.419444444,-0.165
7.422222222,-0.175
7.425,-0.185
7.427777778,-0.17
7.430555556,-0.15
7.433333333,-0.145
7.436111111,-0.15
7.438888889,-0.175
7.441666667,-0.155
7.444444444,-0.155
7.447222222,-0.135
7.45,-0.115
7.452777778,-0.11
7.455555556,-0.115
7.458333333,-0.115
7.461111111,-0.09
7.463888889,-0.08
7.466666667,-0.065
7.469444444,-0.065
7.472222222,-0.08
7.475,-0.09
7.477777778,-0.08
7.480555556,-0.07
7.483333333,-0.055
7.486111111,-0.06
7.488888889,-0.075
7.491666667,-0.08
7.494444444,-0.06
7.497222222,-0.065
7.5,-0.065
7.502777778,-0.065
7.505555556,-0.095
7.508333333,-0.105
7.511111111,-0.095
7.513888889,-0.08
7.516666667,-0.085
7.519444444,-0.1
7.522222222,-0.125
7.525,-0.15
7.527777778,-0.14
7.530555556,-0.145
7.533333333,-0.14
7.536111111,-0.16
7.538888889,-0.18
7.541666667,-0.195
7.544444444,-0.18
7.547222222,-0.165
7.55,-0.155
7.552777778,-0.15
7.555555556,-0.165
7.558333333,-0.185
7.561111111,-0.18
7.563888889,-0.17
7.566666667,-0.17
7.569444444,-0.17
7.572222222,-0.17
7.575,-0.185
7.577777778,-0.185
7.580555556,-0.165
7.583333333,-0.165
7.586111111,-0.16
7.588888889,-0.16
7.591666667,-0.155
7.594444444,-0.15
7.597222222,-0.135
7.6,-0.125
7.602777778,-0.13
7.605555556,-0.15
7.608333333,-0.15
7.611111111,-0.14
7.613888889,-0.09
7.616666667,-0.01
7.619444444,0.075
7.622222222,0.165
7.625,0.265
7.627777778,0.38
7.630555556,0.5
7.633333333,0.61
7.636111111,0.735
7.638888889,0.87
7.641666667,1.06
7.644444444,1.245
7.647222222,1.445
7.65,1.62
7.652777778,1.75
7.655555556,1.835
7.658333333,1.89
7.661111111,1.915
7.663888889,1.935
7.666666667,1.86
7.669444444,1.65
7.672222222,1.34
7.675,1.025
7.677777778,0.785
7.680555556,0.64
7.683333333,0.555
7.686111111,0.48
7.688888889,0.44
7.691666667,0.415
7.694444444,0.385
7.697222222,0.37
7.7,0.335
7.702777778,0.285
7.705555556,0.235
7.708333333,0.18
7.711111111,0.145
7.713888889,0.135
7.716666667,0.12
7.719444444,0.08
7.722222222,0.025
7.725,-0.025
7.727777778,-0.075
7.730555556,-0.09
7.733333333,-0.12
7.736111111,-0.15
7.738888889,-0.205
7.741666667,-0.24
7.744444444,-0.26
7.747222222,-0.28
7.75,-0.3
7.752777778,-0.315
7.755555556,-0.34
7.758333333,-0.35
7.761111111,-0.345
7.763888889,-0.34
7.766666667,-0.345
7.769444444,-0.37
7.772222222,-0.375
7.775,-0.395
7.777777778,-0.38
7.780555556,-0.375
7.783333333,-0.36
7.786111111,-0.395
7.788888889,-0.41
7.791666667,-0.43
7.794444444,-0.425
7.797222222,-0.4
7.8,-0.395
7.802777778,-0.43
7.805555556,-0.435
7.808333333,-0.44
7.811111111,-0.43
7.813888889,-0.43
7.816666667,-0.415
7.819444444,-0.425
7.822222222,-0.44
7.825,-0.45
7.827777778,-0.45
7.830555556,-0.445
7.833333333,-0.45
7.836111111,-0.455
7.838888889,-0.465
7.841666667,-0.48
7.844444444,-0.48
7.847222222,-0.48
7.85,-0.475
7.852777778,-0.495
7.855555556,-0.525
7.858333333,-0.535
7.861111111,-0.53
7.863888889,-0.515
7.866666667,-0.5
7.869444444,-0.515
7.872222222,-0.54
7.875,-0.565
7.877777778,-0.565
7.880555556,-0.56
7.883333333,-0.565
7.886111111,-0.565
7.888888889,-0.585
7.891666667,-0.605
7.894444444,-0.6
7.897222222,-0.61
7.9,-0.61
7.902777778,-0.625
7.905555556,-0.63
7.908333333,-0.645
7.911111111,-0.64
7.913888889,-0.645
7.916666667,-0.625
7.919444444,-0.645
7.922222222,-0.655
7.925,-0.67
7.927777778,-0.635
7.930555556,-0.615
7.933333333,-0.59
7.936111111,-0.6
7.938888889,-0.605
7.941666667,-0.6
7.944444444,-0.585
7.947222222,-0.55
7.95,-0.52
7.952777778,-0.505
7.955555556,-0.495
7.958333333,-0.49
7.961111111,-0.47
7.963888889,-0.445
7.966666667,-0.405
7.969444444,-0.375
7.972222222,-0.375
7.975,-0.355
7.977777778,-0.335
7.980555556,-0.31
7.983333333,-0.29
7.986111111,-0.295
7.988888889,-0.28
7.991666667,-0.275
7.994444444,-0.24
7.997222222,-0.21
8,-0.205
8.002777778,-0.2
8.005555556,-0.215
8.008333333,-0.225
8.011111111,-0.21
8.013888889,-0.16
8.016666667,-0.15
8.019444444,-0.155
8.022222222,-0.19
8.025,-0.19
8.027777778,-0.185
8.030555556,-0.16
8.033333333,-0.155
8.036111111,-0.16
8.038888889,-0.16
8.041666667,-0.18
8.044444444,-0.175
8.047222222,-0.165
8.05,-0.18
8.052777778,-0.175
8.055555556,-0.175
8.058333333,-0.185
8.061111111,-0.165
8.063888889,-0.16
8.066666667,-0.16
8.069444444,-0.17
8.072222222,-0.185
8.075,-0.195
8.077777778,-0.185
8.080555556,-0.16
8.083333333,-0.145
8.086111111,-0.17
8.088888889,-0.17
8.091666667,-0.18
8.094444444,-0.185
8.097222222,-0.17
8.1,-0.165
8.102777778,-0.17
8.105555556,-0.18
8.108333333,-0.195
8.111111111,-0.185
8.113888889,-0.18
8.116666667,-0.155
8.119444444,-0.165
8.122222222,-0.2
8.125,-0.195
8.127777778,-0.2
8.130555556,-0.19
8.133333333,-0.18
8.136111111,-0.18
8.138888889,-0.215
8.141666667,-0.225
8.144444444,-0.2
8.147222222,-0.165
8.15,-0.16
8.152777778,-0.16
8.155555556,-0.195
8.158333333,-0.215
8.161111111,-0.2
8.163888889,-0.175
8.166666667,-0.17
8.169444444,-0.175
8.172222222,-0.16
8.175,-0.19
8.177777778,-0.175
8.180555556,-0.17
8.183333333,-0.17
8.186111111,-0.155
8.188888889,-0.17
8.191666667,-0.175
8.194444444,-0.195
8.197222222,-0.175
8.2,-0.17
8.202777778,-0.17
8.205555556,-0.185
8.208333333,-0.195
8.211111111,-0.175
8.213888889,-0.175
8.216666667,-0.155
8.219444444,-0.17
8.222222222,-0.18
8.225,-0.195
8.227777778,-0.185
8.230555556,-0.165
8.233333333,-0.155
8.236111111,-0.155
8.238888889,-0.16
8.241666667,-0.175
8.244444444,-0.185
8.247222222,-0.18
8.25,-0.155
8.252777778,-0.16
8.255555556,-0.17
8.258333333,-0.175
8.261111111,-0.16
8.263888889,-0.155
8.266666667,-0.14
8.269444444,-0.155
8.272222222,-0.17
8.275,-0.18
8.277777778,-0.16
8.280555556,-0.15
8.283333333,-0.135
8.286111111,-0.14
8.288888889,-0.145
8.291666667,-0.145
8.294444444,-0.14
8.297222222,-0.11
8.3,-0.08
8.302777778,-0.08
8.305555556,-0.095
8.308333333,-0.105
8.311111111,-0.12
8.313888889,-0.095
8.316666667,-0.095
8.319444444,-0.11
8.322222222,-0.105
8.325,-0.115
8.327777778,-0.095
8.330555556,-0.08
8.333333333,-0.055
8.336111111,-0.06
8.338888889,-0.08
8.341666667,-0.07
8.344444444,-0.075
8.347222222,-0.07
8.35,-0.055
8.352777778,-0.065
8.355555556,-0.09
8.358333333,-0.1
8.361111111,-0.085
8.363888889,-0.07
8.366666667,-0.055
8.369444444,-0.065
8.372222222,-0.075
8.375,-0.09
8.377777778,-0.095
8.380555556,-0.09
8.383333333,-0.09
8.386111111,-0.125
8.388888889,-0.135
8.391666667,-0.14
8.394444444,-0.14
8.397222222,-0.145
8.4,-0.145
8.402777778,-0.14
8.405555556,-0.165
8.408333333,-0.155
8.411111111,-0.14
8.413888889,-0.13
8.416666667,-0.105
8.419444444,-0.115
8.422222222,-0.14
8.425,-0.155
8.427777778,-0.155
8.430555556,-0.135
8.433333333,-0.14
8.436111111,-0.145
8.438888889,-0.14
8.441666667,-0.155
8.444444444,-0.155
8.447222222,-0.14
8.45,-0.13
8.452777778,-0.13
8.455555556,-0.145
8.458333333,-0.145
8.461111111,-0.135
8.463888889,-0.12
8.466666667,-0.1
8.469444444,-0.11
8.472222222,-0.125
8.475,-0.15
8.477777778,-0.145
8.480555556,-0.125
8.483333333,-0.11
8.486111111,-0.09
8.488888889,-0.06
8.491666667,-0.005
8.494444444,0.095
8.497222222,0.2
8.5,0.3
8.502777778,0.38
8.505555556,0.45
8.508333333,0.55
8.511111111,0.655
8.513888889,0.8
8.516666667,0.935
8.519444444,1.1
8.522222222,1.245
8.525,1.39
8.527777778,1.56
8.530555556,1.72
8.533333333,1.83
8.536111111,1.87
8.538888889,1.875
8.541666667,1.865
8.544444444,1.825
8.547222222,1.75
8.55,1.63
8.552777778,1.43
8.555555556,1.17
8.558333333,0.93
8.561111111,0.72
8.563888889,0.58
8.566666667,0.5
8.569444444,0.435
8.572222222,0.395
8.575,0.37
8.577777778,0.345
8.580555556,0.355
8.583333333,0.325
8.586111111,0.275
8.588888889,0.22
8.591666667,0.165
8.594444444,0.125
8.597222222,0.115
8.6,0.105
8.602777778,0.09
8.605555556,0.06
8.608333333,0.03
8.611111111,0.005
8.613888889,-0.02
8.616666667,-0.07
8.619444444,-0.095
8.622222222,-0.13
8.625,-0.175
8.627777778,-0.205
8.630555556,-0.225
8.633333333,-0.235
8.636111111,-0.29
8.638888889,-0.305
8.641666667,-0.33
8.644444444,-0.34
8.647222222,-0.335
8.65,-0.32
8.652777778,-0.33
8.655555556,-0.35
8.658333333,-0.375
8.661111111,-0.37
8.663888889,-0.37
8.666666667,-0.36
8.669444444,-0.36
8.672222222,-0.365
8.675,-0.38
8.677777778,-0.39
8.680555556,-0.39
8.683333333,-0.38
8.686111111,-0.38
8.688888889,-0.405
8.691666667,-0.405
8.694444444,-0.41
8.697222222,-0.415
8.7,-0.405
8.702777778,-0.42
8.705555556,-0.435
8.708333333,-0.445
8.711111111,-0.455
8.713888889,-0.43
8.716666667,-0.41
8.719444444,-0.41
8.722222222,-0.435
8.725,-0.465
8.727777778,-0.465
8.730555556,-0.455
8.733333333,-0.445
8.736111111,-0.46
8.738888889,-0.48
8.741666667,-0.495
8.744444444,-0.51
8.747222222,-0.495
8.75,-0.5
8.752777778,-0.49
8.755555556,-0.52
8.758333333,-0.53
8.761111111,-0.52
8.763888889,-0.53
8.766666667,-0.53
8.769444444,-0.555
8.772222222,-0.565
8.775,-0.59
8.777777778,-0.585
8.780555556,-0.57
8.783333333,-0.57
8.786111111,-0.59
8.788888889,-0.62
8.791666667,-0.64
8.794444444,-0.645
8.797222222,-0.625
8.8,-0.615
8.802777778,-0.62
8.805555556,-0.65
8.808333333,-0.665
8.811111111,-0.66
8.813888889,-0.645
8.816666667,-0.64
8.819444444,-0.645
8.822222222,-0.635
8.825,-0.625
8.827777778,-0.605
8.830555556,-0.59
8.833333333,-0.58
8.836111111,-0.575
8.838888889,-0.575
8.841666667,-0.535
8.844444444,-0.515
8.847222222,-0.465
8.85,-0.44
8.852777778,-0.415
8.855555556,-0.405
8.858333333,-0.395
8.861111111,-0.375
8.863888889,-0.335
8.866666667,-0.29
8.869444444,-0.275
8.872222222,-0.285
8.875,-0.265
8.877777778,-0.25
8.880555556,-0.22
8.883333333,-0.205
8.886111111,-0.19
8.888888889,-0.19
8.891666667,-0.19
8.894444444,-0.175
8.897222222,-0.175
8.9,-0.15
8.902777778,-0.15
8.905555556,-0.14
8.908333333,-0.155
8.911111111,-0.135
8.913888889,-0.13
8.916666667,-0.12
8.919444444,-0.13
8.922222222,-0.145
8.925,-0.135
8.927777778,-0.13
8.930555556,-0.105
8.933333333,-0.085
8.936111111,-0.075
8.938888889,-0.075
8.941666667,-0.055
8.944444444,-0.02
8.947222222,0.05
8.95,0.14
8.952777778,0.22
8.955555556,0.31
8.958333333,0.395
8.961111111,0.5
8.963888889,0.63
8.966666667,0.745
8.969444444,0.865
8.972222222,0.955
8.975,1.04
8.977777778,1.115
8.980555556,1.2
8.983333333,1.25
8.986111111,1.295
8.988888889,1.295
8.991666667,1.245
8.994444444,1.14
8.997222222,0.93
9,0.62
9.002777778,0.24
9.005555556,-0.12
9.008333333,-0.435
9.011111111,-0.695
9.013888889,-0.89
9.016666667,-1.065
9.019444444,-1.18
9.022222222,-1.31
9.025,-1.4
9.027777778,-1.46
9.030555556,-1.53
9.033333333,-1.59
9.036111111,-1.675
9.038888889,-1.735
9.041666667,-1.795
9.044444444,-1.84
9.047222222,-1.855
9.05,-1.89
9.052777778,-1.905
9.055555556,-1.935
9.058333333,-1.96
9.061111111,-1.96
9.063888889,-1.92
9.066666667,-1.855
9.069444444,-1.785
9.072222222,-1.67
9.075,-1.51
9.077777778,-1.355
9.080555556,-1.21
9.083333333,-1.105
9.086111111,-1.035
9.088888889,-0.99
9.091666667,-0.93
9.094444444,-0.885
9.097222222,-0.84
9.1,-0.795
9.102777778,-0.765
9.105555556,-0.735
9.108333333,-0.75
9.111111111,-0.72
9.113888889,-0.685
9.116666667,-0.6
9.119444444,-0.545
9.122222222,-0.51
9.125,-0.47
9.127777778,-0.42
9.130555556,-0.35
9.133333333,-0.31
9.136111111,-0.27
9.138888889,-0.23
9.141666667,-0.2
9.144444444,-0.165
9.147222222,-0.105
9.15,-0.06
9.152777778,-0.045
9.155555556,-0.055
9.158333333,-0.05
9.161111111,-0.005
9.163888889,0.035
9.166666667,0.075
9.169444444,0.085
9.172222222,0.085
9.175,0.095
9.177777778,0.115
9.180555556,0.135
9.183333333,0.185
9.186111111,0.205
9.188888889,0.22
9.191666667,0.24
9.194444444,0.25
9.197222222,0.285
9.2,0.335
9.202777778,0.325
9.205555556,0.35
9.208333333,0.345
9.211111111,0.39
9.213888889,0.43
9.216666667,0.49
9.219444444,0.5
9.222222222,0.51
9.225,0.515
9.227777778,0.555
9.230555556,0.6
9.233333333,0.64
9.236111111,0.665
9.238888889,0.68
9.241666667,0.7
9.244444444,0.72
9.247222222,0.745
9.25,0.78
9.252777778,0.81
9.255555556,0.83
9.258333333,0.865
9.261111111,0.895
9.263888889,0.925
9.266666667,0.935
9.269444444,0.955
9.272222222,0.95
9.275,0.945
9.277777778,0.99
9.280555556,1.02
9.283333333,1.05
9.286111111,1.06
9.288888889,1.075
9.291666667,1.07
9.294444444,1.085
9.297222222,1.1
9.3,1.135
9.302777778,1.15
9.305555556,1.14
9.308333333,1.135
9.311111111,1.135
9.313888889,1.14
9.316666667,1.15
9.319444444,1.125
9.322222222,1.13
9.325,1.115
9.327777778,1.12
9.330555556,1.115
9.333333333,1.115
9.336111111,1.095
9.338888889,1.06
9.341666667,1.025
9.344444444,1
9.347222222,1.005
9.35,0.98
9.352777778,0.965
9.355555556,0.91
9.358333333,0.875
9.361111111,0.845
9.363888889,0.83
9.366666667,0.805
9.369444444,0.765
9.372222222,0.725
9.375,0.69
9.377777778,0.66
9.380555556,0.635
9.383333333,0.595
9.386111111,0.56
9.388888889,0.535
9.391666667,0.495
9.394444444,0.475
9.397222222,0.44
9.4,0.425
9.402777778,0.385
9.405555556,0.335
9.408333333,0.285
9.411111111,0.25
9.413888889,0.235
9.416666667,0.215
9.419444444,0.19
9.422222222,0.145
9.425,0.105
9.427777778,0.1
9.430555556,0.075
9.433333333,0.055
9.436111111,0.04
9.438888889,0.015
9.441666667,0
9.444444444,0.005
9.447222222,0.015
9.45,0
9.452777778,-0.02
9.455555556,-0.05
9.458333333,-0.07
9.461111111,-0.085
9.463888889,-0.06
9.466666667,-0.05
9.469444444,-0.05
9.472222222,-0.075
9.475,-0.11
9.477777778,-0.12
9.480555556,-0.1
9.483333333,-0.1
9.486111111,-0.11
9.488888889,-0.125
9.491666667,-0.145
9.494444444,-0.13
9.497222222,-0.125
9.5,-0.11
9.502777778,-0.135
9.505555556,-0.145
9.508333333,-0.145
9.511111111,-0.145
9.513888889,-0.14
9.516666667,-0.135
9.519444444,-0.145
9.522222222,-0.165
9.525,-0.16
9.527777778,-0.165
9.530555556,-0.17
9.533333333,-0.15
9.536111111,-0.155
9.538888889,-0.16
9.541666667,-0.185
9.544444444,-0.18
9.547222222,-0.165
9.55,-0.15
9.552777778,-0.17
9.555555556,-0.18
9.558333333,-0.21
9.561111111,-0.21
9.563888889,-0.19
9.566666667,-0.17
9.569444444,-0.175
9.572222222,-0.195
9.575,-0.205
9.577777778,-0.215
9.580555556,-0.195
9.583333333,-0.195
9.586111111,-0.215
9.588888889,-0.22
9.591666667,-0.215
9.594444444,-0.2
9.597222222,-0.2
9.6,-0.195
9.602777778,-0.21
9.605555556,-0.23
9.608333333,-0.24
9.611111111,-0.22
9.613888889,-0.2
9.616666667,-0.195
9.619444444,-0.2
9.622222222,-0.21
9.625,-0.23
9.627777778,-0.225
9.630555556,-0.23
9.633333333,-0.22
9.636111111,-0.22
9.638888889,-0.225
9.641666667,-0.245
9.644444444,-0.255
9.647222222,-0.23
9.65,-0.23
9.652777778,-0.24
9.655555556,-0.255
9.658333333,-0.25
9.661111111,-0.25
9.663888889,-0.225
9.666666667,-0.23
9.669444444,-0.225
9.672222222,-0.24
9.675,-0.26
9.677777778,-0.255
9.680555556,-0.25
9.683333333,-0.23
9.686111111,-0.24
9.688888889,-0.255
9.691666667,-0.265
9.694444444,-0.265
9.697222222,-0.26
9.7,-0.245
9.702777778,-0.25
9.705555556,-0.26
9.708333333,-0.275
9.711111111,-0.26
9.713888889,-0.25
9.716666667,-0.245
9.719444444,-0.255
9.722222222,-0.26
9.725,-0.28
9.727777778,-0.27
9.730555556,-0.23
9.733333333,-0.235
9.736111111,-0.24
9.738888889,-0.26
9.741666667,-0.265
9.744444444,-0.26
9.747222222,-0.27
9.75,-0.25
9.752777778,-0.25
9.755555556,-0.26
9.758333333,-0.27
9.761111111,-0.27
9.763888889,-0.255
9.766666667,-0.245
9.769444444,-0.235
9.772222222,-0.25
9.775,-0.265
9.777777778,-0.26
9.780555556,-0.255
9.783333333,-0.25
9.786111111,-0.27
9.788888889,-0.285
9.791666667,-0.275
9.794444444,-0.26
9.797222222,-0.245
9.8,-0.23
9.802777778,-0.24
9.805555556,-0.25
9.808333333,-0.27
9.811111111,-0.26
9.813888889,-0.245
9.816666667,-0.245
9.819444444,-0.235
9.822222222,-0.24
9.825,-0.255
9.827777778,-0.255
9.830555556,-0.245
9.833333333,-0.225
9.836111111,-0.235
9.838888889,-0.255
9.841666667,-0.26
9.844444444,-0.255
9.847222222,-0.24
9.85,-0.235
9.852777778,-0.245
9.855555556,-0.255
9.858333333,-0.25
9.861111111,-0.245
9.863888889,-0.23
9.866666667,-0.22
9.869444444,-0.23
9.872222222,-0.255
9.875,-0.255
9.877777778,-0.245
9.880555556,-0.23
9.883333333,-0.225
9.886111111,-0.225
9.888888889,-0.255
9.891666667,-0.25
9.894444444,-0.25
9.897222222,-0.23
9.9,-0.23
9.902777778,-0.225
9.905555556,-0.225
9.908333333,-0.24
9.911111111,-0.25
9.913888889,-0.24
9.916666667,-0.215
9.919444444,-0.215
9.922222222,-0.235
9.925,-0.235
9.927777778,-0.235
9.930555556,-0.23
9.933333333,-0.21
9.936111111,-0.215
9.938888889,-0.23
9.941666667,-0.23
9.944444444,-0.235
9.947222222,-0.215
9.95,-0.21
9.952777778,-0.225
9.955555556,-0.23
9.958333333,-0.235
9.961111111,-0.225
9.963888889,-0.205
9.966666667,-0.185
9.969444444,-0.2
9.972222222,-0.215
9.975,-0.23
9.977777778,-0.21
9.980555556,-0.2
9.983333333,-0.2
9.986111111,-0.21
9.988888889,-0.225
9.991666667,-0.245
9.994444444,-0.24
9.997222222,-0.21
10,-0.195
10.00277778,-0.195
10.00555556,-0.21
10.00833333,-0.215
10.01111111,-0.22
10.01388889,-0.19
10.01666667,-0.19
10.01944444,-0.2
10.02222222,-0.2
10.025,-0.21
10.02777778,-0.205
10.03055556,-0.21
10.03333333,-0.19
10.03611111,-0.18
10.03888889,-0.18
10.04166667,-0.2
10.04444444,-0.19
10.04722222,-0.15
10.05,-0.125
10.05277778,-0.14
10.05555556,-0.15
10.05833333,-0.155
10.06111111,-0.135
10.06388889,-0.12
10.06666667,-0.1
10.06944444,-0.11
10.07222222,-0.13
10.075,-0.125
10.07777778,-0.115
10.08055556,-0.095
10.08333333,-0.08
10.08611111,-0.09
10.08888889,-0.115
10.09166667,-0.145
10.09444444,-0.135
10.09722222,-0.125
10.1,-0.105
10.10277778,-0.1
10.10555556,-0.115
10.10833333,-0.115
10.11111111,-0.12
10.11388889,-0.135
10.11666667,-0.12
10.11944444,-0.13
10.12222222,-0.14
10.125,-0.155
10.12777778,-0.165
10.13055556,-0.165
10.13333333,-0.18
10.13611111,-0.18
10.13888889,-0.205
10.14166667,-0.21
10.14444444,-0.19
10.14722222,-0.17
10.15,-0.15
10.15277778,-0.165
10.15555556,-0.18
10.15833333,-0.21
10.16111111,-0.195
10.16388889,-0.185
10.16666667,-0.17
10.16944444,-0.165
10.17222222,-0.18
10.175,-0.2
10.17777778,-0.19
10.18055556,-0.185
10.18333333,-0.16
10.18611111,-0.185
10.18888889,-0.18
10.19166667,-0.17
10.19444444,-0.18
10.19722222,-0.18
10.2,-0.16
10.20277778,-0.175
10.20555556,-0.17
10.20833333,-0.175
10.21111111,-0.16
10.21388889,-0.12
10.21666667,-0.02
10.21944444,0.06
10.22222222,0.165
10.225,0.255
10.22777778,0.34
10.23055556,0.47
10.23333333,0.585
10.23611111,0.71
10.23888889,0.855
10.24166667,1.04
10.24444444,1.235
10.24722222,1.415
10.25,1.59
10.25277778,1.73
10.25555556,1.845
10.25833333,1.925
10.26111111,2
10.26388889,2.03
10.26666667,2.015
10.26944444,1.92
10.27222222,1.705
10.275,1.38
10.27777778,1.055
10.28055556,0.805
10.28333333,0.665
10.28611111,0.565
10.28888889,0.505
10.29166667,0.45
10.29444444,0.44
10.29722222,0.42
10.3,0.39
10.30277778,0.34
10.30555556,0.275
10.30833333,0.22
10.31111111,0.19
10.31388889,0.18
10.31666667,0.165
10.31944444,0.14
10.32222222,0.085
10.325,0.03
10.32777778,0
10.33055556,-0.03
10.33333333,-0.055
10.33611111,-0.1
10.33888889,-0.14
10.34166667,-0.165
10.34444444,-0.215
10.34722222,-0.22
10.35,-0.25
10.35277778,-0.275
10.35555556,-0.31
10.35833333,-0.335
10.36111111,-0.36
10.36388889,-0.345
10.36666667,-0.33
10.36944444,-0.345
10.37222222,-0.365
10.375,-0.385
10.37777778,-0.405
10.38055556,-0.38
10.38333333,-0.37
10.38611111,-0.375
10.38888889,-0.41
10.39166667,-0.42
10.39444444,-0.43
10.39722222,-0.415
10.4,-0.405
10.40277778,-0.41
10.40555556,-0.415
10.40833333,-0.425
10.41111111,-0.425
10.41388889,-0.425
10.41666667,-0.425
10.41944444,-0.445
10.42222222,-0.45
10.425,-0.475
10.42777778,-0.45
10.43055556,-0.44
10.43333333,-0.445
10.43611111,-0.465
10.43888889,-0.465
10.44166667,-0.48
10.44444444,-0.48
10.44722222,-0.475
10.45,-0.465
10.45277778,-0.495
10.45555556,-0.505
10.45833333,-0.525
10.46111111,-0.52
10.46388889,-0.52
10.46666667,-0.5
10.46944444,-0.525
10.47222222,-0.555
10.475,-0.565
10.47777778,-0.565
10.48055556,-0.57
10.48333333,-0.56
10.48611111,-0.57
10.48888889,-0.585
10.49166667,-0.6
10.49444444,-0.61
10.49722222,-0.62
10.5,-0.61
10.50277778,-0.635
10.50555556,-0.645
10.50833333,-0.645
10.51111111,-0.65
10.51388889,-0.66
10.51666667,-0.65
10.51944444,-0.665
10.52222222,-0.705
10.525,-0.675
10.52777778,-0.67
10.53055556,-0.65
10.53333333,-0.625
10.53611111,-0.62
10.53888889,-0.635
10.54166667,-0.63
10.54444444,-0.6
10.54722222,-0.57
10.55,-0.545
10.55277778,-0.525
10.55555556,-0.515
10.55833333,-0.5
10.56111111,-0.47
10.56388889,-0.42
10.56666667,-0.385
10.56944444,-0.355
10.57222222,-0.36
10.575,-0.335
10.57777778,-0.315
10.58055556,-0.275
10.58333333,-0.25
10.58611111,-0.23
10.58888889,-0.225
10.59166667,-0.215
10.59444444,-0.205
10.59722222,-0.17
10.6,-0.15
10.60277778,-0.14
10.60555556,-0.14
10.60833333,-0.15
10.61111111,-0.145
10.61388889,-0.135
10.61666667,-0.14
10.61944444,-0.125
10.62222222,-0.13
10.625,-0.11
10.62777778,-0.135
10.63055556,-0.115
10.63333333,-0.12
10.63611111,-0.135
10.63888889,-0.145
10.64166667,-0.16
10.64444444,-0.155
10.64722222,-0.135
10.65,-0.135
10.65277778,-0.13
10.65555556,-0.155
10.65833333,-0.165
10.66111111,-0.17
10.66388889,-0.15
10.66666667,-0.145
10.66944444,-0.16
10.67222222,-0.18
10.675,-0.185
10.67777778,-0.18
10.68055556,-0.165
10.68333333,-0.145
10.68611111,-0.17
10.68888889,-0.165
10.69166667,-0.195
10.69444444,-0.19
10.69722222,-0.175
10.7,-0.155
10.70277778,-0.16
10.70555556,-0.16
10.70833333,-0.17
10.71111111,-0.185
10.71388889,-0.18
10.71666667,-0.16
10.71944444,-0.16
10.72222222,-0.16
10.725,-0.155
10.72777778,-0.145
10.73055556,-0.16
10.73333333,-0.165
10.73611111,-0.17
10.73888889,-0.17
10.74166667,-0.18
10.74444444,-0.165
10.74722222,-0.17
10.75,-0.155
10.75277778,-0.16
10.75555556,-0.17
10.75833333,-0.19
10.76111111,-0.16
10.76388889,-0.15
10.76666667,-0.15
10.76944444,-0.17
10.77222222,-0.165
10.775,-0.18
10.77777778,-0.18
10.78055556,-0.175
10.78333333,-0.145
10.78611111,-0.16
10.78888889,-0.18
10.79166667,-0.19
10.79444444,-0.195
10.79722222,-0.175
10.8,-0.155
10.80277778,-0.145
10.80555556,-0.16
10.80833333,-0.17
10.81111111,-0.155
10.81388889,-0.15
10.81666667,-0.14
10.81944444,-0.14
10.82222222,-0.135
10.825,-0.13
10.82777778,-0.13
10.83055556,-0.12
10.83333333,-0.115
10.83611111,-0.11
10.83888889,-0.12
10.84166667,-0.12
10.84444444,-0.115
10.84722222,-0.105
10.85,-0.095
10.85277778,-0.095
10.85555556,-0.095
10.85833333,-0.08
10.86111111,-0.08
10.86388889,-0.07
10.86666667,-0.075
10.86944444,-0.09
10.87222222,-0.105
10.875,-0.13
10.87777778,-0.115
10.88055556,-0.095
10.88333333,-0.07
10.88611111,-0.085
10.88888889,-0.13
10.89166667,-0.155
10.89444444,-0.145
10.89722222,-0.13
10.9,-0.115
10.90277778,-0.12
10.90555556,-0.145
10.90833333,-0.19
10.91111111,-0.21
10.91388889,-0.205
10.91666667,-0.18
10.91944444,-0.165
10.92222222,-0.19
10.925,-0.2
10.92777778,-0.19
10.93055556,-0.18
10.93333333,-0.18
10.93611111,-0.185
10.93888889,-0.225
10.94166667,-0.22
10.94444444,-0.22
10.94722222,-0.21
10.95,-0.2
10.95277778,-0.2
10.95555556,-0.19
10.95833333,-0.2
10.96111111,-0.195
10.96388889,-0.205
10.96666667,-0.19
10.96944444,-0.18
10.97222222,-0.2
10.975,-0.195
10.97777778,-0.195
10.98055556,-0.185
10.98333333,-0.165
10.98611111,-0.18
10.98888889,-0.185
10.99166667,-0.165
10.99444444,-0.05
10.99722222,0.085
11,0.21
11.00277778,0.3
11.00555556,0.375
11.00833333,0.455
11.01111111,0.565
11.01388889,0.68
11.01666667,0.845
11.01944444,1.02
11.02222222,1.21
11.025,1.42
11.02777778,1.615
11.03055556,1.78
11.03333333,1.88
11.03611111,1.87
11.03888889,1.76
11.04166667,1.565
11.04444444,1.28
11.04722222,0.97
11.05,0.695
11.05277778,0.495
11.05555556,0.385
11.05833333,0.305
11.06111111,0.275
11.06388889,0.275
11.06666667,0.315
11.06944444,0.295
11.07222222,0.25
11.075,0.205
11.07777778,0.17
11.08055556,0.13
11.08333333,0.12
11.08611111,0.075
11.08888889,0.02
11.09166667,-0.01
11.09444444,-0.04
11.09722222,-0.05
11.1,-0.07
11.10277778,-0.11
11.10555556,-0.155
11.10833333,-0.2
11.11111111,-0.21
11.11388889,-0.235
11.11666667,-0.255
11.11944444,-0.285
11.12222222,-0.33
11.125,-0.365
11.12777778,-0.365
11.13055556,-0.375
11.13333333,-0.36
11.13611111,-0.37
11.13888889,-0.39
11.14166667,-0.405
11.14444444,-0.415
11.14722222,-0.41
11.15,-0.375
11.15277778,-0.395
11.15555556,-0.43
11.15833333,-0.44
11.16111111,-0.435
11.16388889,-0.425
11.16666667,-0.41
11.16944444,-0.42
11.17222222,-0.43
11.175,-0.45
11.17777778,-0.45
11.18055556,-0.43
11.18333333,-0.42
11.18611111,-0.42
11.18888889,-0.44
11.19166667,-0.455
11.19444444,-0.475
11.19722222,-0.455
11.2,-0.455
11.20277778,-0.46
11.20555556,-0.475
11.20833333,-0.495
11.21111111,-0.485
11.21388889,-0.485
11.21666667,-0.485
11.21944444,-0.495
11.22222222,-0.52
11.225,-0.515
11.22777778,-0.525
11.23055556,-0.53
11.23333333,-0.535
11.23611111,-0.545
11.23888889,-0.565
11.24166667,-0.575
11.24444444,-0.58
11.24722222,-0.58
11.25,-0.575
11.25277778,-0.59
11.25555556,-0.61
11.25833333,-0.64
11.26111111,-0.63
11.26388889,-0.61
11.26666667,-0.615
11.26944444,-0.62
11.27222222,-0.64
11.275,-0.67
11.27777778,-0.66
11.28055556,-0.64
11.28333333,-0.615
11.28611111,-0.63
11.28888889,-0.63
11.29166667,-0.65
11.29444444,-0.635
11.29722222,-0.625
11.3,-0.6
11.30277778,-0.585
11.30555556,-0.58
11.30833333,-0.565
11.31111111,-0.545
11.31388889,-0.535
11.31666667,-0.51
11.31944444,-0.5
11.32222222,-0.49
11.325,-0.475
11.32777778,-0.425
11.33055556,-0.4
11.33333333,-0.345
11.33611111,-0.32
11.33888889,-0.31
11.34166667,-0.315
11.34444444,-0.3
11.34722222,-0.28
11.35,-0.27
11.35277778,-0.255
11.35555556,-0.255
11.35833333,-0.25
11.36111111,-0.23
11.36388889,-0.225
11.36666667,-0.21
11.36944444,-0.215
11.37222222,-0.235
11.375,-0.26
11.37777778,-0.24
11.38055556,-0.21
11.38333333,-0.205
11.38611111,-0.2
11.38888889,-0.225
11.39166667,-0.24
11.39444444,-0.22
11.39722222,-0.21
11.4,-0.195
11.40277778,-0.21
11.40555556,-0.22
11.40833333,-0.24
11.41111111,-0.25
11.41388889,-0.225
11.41666667,-0.225
11.41944444,-0.225
11.42222222,-0.245
11.425,-0.255
11.42777778,-0.25
11.43055556,-0.225
11.43333333,-0.21
11.43611111,-0.21
11.43888889,-0.24
11.44166667,-0.26
11.44444444,-0.255
11.44722222,-0.23
11.45,-0.19
11.45277778,-0.2
11.45555556,-0.225
11.45833333,-0.235
11.46111111,-0.245
11.46388889,-0.215
11.46666667,-0.21
11.46944444,-0.2
11.47222222,-0.21
11.475,-0.225
11.47777778,-0.23
11.48055556,-0.215
11.48333333,-0.205
11.48611111,-0.21
11.48888889,-0.22
11.49166667,-0.245
11.49444444,-0.24
11.49722222,-0.235
11.5,-0.21
11.50277778,-0.205
11.50555556,-0.21
11.50833333,-0.215
11.51111111,-0.23
11.51388889,-0.225
11.51666667,-0.215
11.51944444,-0.2
11.52222222,-0.205
11.525,-0.225
11.52777778,-0.225
11.53055556,-0.215
11.53333333,-0.215
11.53611111,-0.205
11.53888889,-0.21
11.54166667,-0.21
11.54444444,-0.2
11.54722222,-0.21
11.55,-0.2
11.55277778,-0.195
11.55555556,-0.19
11.55833333,-0.17
11.56111111,-0.16
11.56388889,-0.145
11.56666667,-0.145
11.56944444,-0.13
11.57222222,-0.155
11.575,-0.155
11.57777778,-0.14
11.58055556,-0.13
11.58333333,-0.12
11.58611111,-0.13
11.58888889,-0.145
11.59166667,-0.135
11.59444444,-0.135
11.59722222,-0.1
11.6,-0.095
11.60277778,-0.115
11.60555556,-0.12
11.60833333,-0.135
11.61111111,-0.125
11.61388889,-0.115
11.61666667,-0.105
11.61944444,-0.13
11.62222222,-0.15
11.625,-0.175
11.62777778,-0.185
11.63055556,-0.175
11.63333333,-0.16
11.63611111,-0.18
11.63888889,-0.205
11.64166667,-0.22
11.64444444,-0.22
11.64722222,-0.215
11.65,-0.2
11.65277778,-0.195
11.65555556,-0.205
11.65833333,-0.215
11.66111111,-0.22
11.66388889,-0.22
11.66666667,-0.205
11.66944444,-0.21
11.67222222,-0.205
11.675,-0.22
11.67777778,-0.225
11.68055556,-0.225
11.68333333,-0.21
11.68611111,-0.21
11.68888889,-0.225
11.69166667,-0.235
11.69444444,-0.215
11.69722222,-0.205
11.7,-0.19
11.70277778,-0.19
11.70555556,-0.205
11.70833333,-0.19
11.71111111,-0.175
11.71388889,-0.085
11.71666667,0.04
11.71944444,0.15
11.72222222,0.255
11.725,0.345
11.72777778,0.43
11.73055556,0.53
11.73333333,0.645
11.73611111,0.76
11.73888889,0.94
11.74166667,1.145
11.74444444,1.375
11.74722222,1.62
11.75,1.84
11.75277778,1.95
11.75555556,1.97
11.75833333,1.925
11.76111111,1.78
11.76388889,1.53
11.76666667,1.175
11.76944444,0.81
11.77222222,0.515
11.775,0.345
11.77777778,0.26
11.78055556,0.24
11.78333333,0.245
11.78611111,0.25
11.78888889,0.245
11.79166667,0.205
11.79444444,0.195
11.79722222,0.17
11.8,0.135
11.80277778,0.085
11.80555556,0.045
11.80833333,0.015
11.81111111,-0.015
11.81388889,-0.02
11.81666667,-0.055
11.81944444,-0.105
11.82222222,-0.155
11.825,-0.2
11.82777778,-0.23
11.83055556,-0.23
11.83333333,-0.245
11.83611111,-0.275
11.83888889,-0.325
11.84166667,-0.36
11.84444444,-0.375
11.84722222,-0.38
11.85,-0.38
11.85277778,-0.385
11.85555556,-0.4
11.85833333,-0.425
11.86111111,-0.43
11.86388889,-0.425
11.86666667,-0.405
11.86944444,-0.41
11.87222222,-0.435
11.875,-0.455
11.87777778,-0.465
11.88055556,-0.45
11.88333333,-0.445
11.88611111,-0.455
11.88888889,-0.46
11.89166667,-0.455
11.89444444,-0.455
11.89722222,-0.46
11.9,-0.45
11.90277778,-0.47
11.90555556,-0.48
11.90833333,-0.48
11.91111111,-0.48
11.91388889,-0.48
11.91666667,-0.46
11.91944444,-0.49
11.92222222,-0.51
11.925,-0.525
11.92777778,-0.52
11.93055556,-0.51
11.93333333,-0.495
11.93611111,-0.515
11.93888889,-0.53
11.94166667,-0.56
11.94444444,-0.545
11.94722222,-0.545
11.95,-0.54
11.95277778,-0.56
11.95555556,-0.6
11.95833333,-0.625
11.96111111,-0.61
11.96388889,-0.605
11.96666667,-0.61
11.96944444,-0.62
11.97222222,-0.625
11.975,-0.65
11.97777778,-0.655
11.98055556,-0.66
11.98333333,-0.65
11.98611111,-0.655
11.98888889,-0.675
11.99166667,-0.695
11.99444444,-0.69
11.99722222,-0.685
12,-0.66
12.00277778,-0.66
12.00555556,-0.645
12.00833333,-0.655
12.01111111,-0.64
12.01388889,-0.635
12.01666667,-0.6
12.01944444,-0.595
12.02222222,-0.595
12.025,-0.58
12.02777778,-0.555
12.03055556,-0.525
12.03333333,-0.495
12.03611111,-0.465
12.03888889,-0.47
12.04166667,-0.44
12.04444444,-0.4
12.04722222,-0.36
12.05,-0.33
12.05277778,-0.335
12.05555556,-0.305
12.05833333,-0.305
12.06111111,-0.28
12.06388889,-0.245
12.06666667,-0.215
12.06944444,-0.23
12.07222222,-0.235
12.075,-0.25
12.07777778,-0.25
12.08055556,-0.225
12.08333333,-0.195
12.08611111,-0.19
12.08888889,-0.215
12.09166667,-0.235
12.09444444,-0.23
12.09722222,-0.21
12.1,-0.2
12.10277778,-0.195
12.10555556,-0.21
12.10833333,-0.235
12.11111111,-0.23
12.11388889,-0.215
12.11666667,-0.195
12.11944444,-0.2
12.12222222,-0.205
12.125,-0.22
12.12777778,-0.22
12.13055556,-0.22
12.13333333,-0.23
12.13611111,-0.225
12.13888889,-0.225
12.14166667,-0.235
12.14444444,-0.24
12.14722222,-0.24
12.15,-0.235
12.15277778,-0.235
12.15555556,-0.23
12.15833333,-0.235
12.16111111,-0.255
12.16388889,-0.23
12.16666667,-0.23
12.16944444,-0.215
12.17222222,-0.235
12.175,-0.235
12.17777778,-0.23
12.18055556,-0.22
12.18333333,-0.21
12.18611111,-0.24
12.18888889,-0.25
12.19166667,-0.26
12.19444444,-0.25
12.19722222,-0.22
12.2,-0.205
12.20277778,-0.215
12.20555556,-0.24
12.20833333,-0.25
12.21111111,-0.235
12.21388889,-0.21
12.21666667,-0.2
12.21944444,-0.215
12.22222222,-0.22
12.225,-0.255
12.22777778,-0.25
12.23055556,-0.235
12.23333333,-0.225
12.23611111,-0.215
12.23888889,-0.235
12.24166667,-0.25
12.24444444,-0.24
12.24722222,-0.245
12.25,-0.21
12.25277778,-0.22
12.25555556,-0.23
12.25833333,-0.235
12.26111111,-0.25
12.26388889,-0.24
12.26666667,-0.225
12.26944444,-0.215
12.27222222,-0.225
12.275,-0.24
12.27777778,-0.23
12.28055556,-0.205
12.28333333,-0.19
12.28611111,-0.175
12.28888889,-0.18
12.29166667,-0.17
12.29444444,-0.155
12.29722222,-0.14
12.3,-0.135
12.30277778,-0.13
12.30555556,-0.15
12.30833333,-0.155
12.31111111,-0.145
12.31388889,-0.135
12.31666667,-0.11
12.31944444,-0.125
12.32222222,-0.135
12.325,-0.165
12.32777778,-0.145
12.33055556,-0.13
12.33333333,-0.125
12.33611111,-0.14
12.33888889,-0.15
12.34166667,-0.175
12.34444444,-0.18
12.34722222,-0.175
12.35,-0.16
12.35277778,-0.175
12.35555556,-0.19
12.35833333,-0.22
12.36111111,-0.245
12.36388889,-0.225
12.36666667,-0.21
12.36944444,-0.21
12.37222222,-0.23
12.375,-0.26
12.37777778,-0.26
12.38055556,-0.235
12.38333333,-0.215
12.38611111,-0.21
12.38888889,-0.24
12.39166667,-0.27
12.39444444,-0.275
12.39722222,-0.245
12.4,-0.23
12.40277778,-0.23
12.40555556,-0.235
12.40833333,-0.255
12.41111111,-0.25
12.41388889,-0.235
12.41666667,-0.215
12.41944444,-0.245
12.42222222,-0.24
12.425,-0.225
12.42777778,-0.22
12.43055556,-0.21
12.43333333,-0.215
12.43611111,-0.225
12.43888889,-0.235
12.44166667,-0.19
12.44444444,-0.08
12.44722222,0.04
12.45,0.17
12.45277778,0.27
12.45555556,0.35
12.45833333,0.44
12.46111111,0.545
12.46388889,0.655
12.46666667,0.79
12.46944444,0.935
12.47222222,1.145
12.475,1.35
12.47777778,1.585
12.48055556,1.79
12.48333333,1.93
12.48611111,1.96
12.48888889,1.9
12.49166667,1.73
12.49444444,1.465
12.49722222,1.125
12.5,0.84
12.50277778,0.63
12.50555556,0.485
12.50833333,0.405
12.51111111,0.375
12.51388889,0.37
12.51666667,0.36
12.51944444,0.315
12.52222222,0.275
12.525,0.225
12.52777778,0.18
12.53055556,0.145
12.53333333,0.095
12.53611111,0.06
12.53888889,0.015
12.54166667,-0.03
12.54444444,-0.095
12.54722222,-0.12
12.55,-0.15
12.55277778,-0.2
12.55555556,-0.25
12.55833333,-0.305
12.56111111,-0.31
12.56388889,-0.315
12.56666667,-0.325
12.56944444,-0.355
12.57222222,-0.39
12.575,-0.455
12.57777778,-0.435
12.58055556,-0.42
12.58333333,-0.425
12.58611111,-0.44
12.58888889,-0.46
12.59166667,-0.47
12.59444444,-0.485
12.59722222,-0.465
12.6,-0.45
12.60277778,-0.465
12.60555556,-0.49
12.60833333,-0.505
12.61111111,-0.505
12.61388889,-0.495
12.61666667,-0.485
12.61944444,-0.48
12.62222222,-0.5
12.625,-0.515
12.62777778,-0.505
12.63055556,-0.515
12.63333333,-0.51
12.63611111,-0.51
12.63888889,-0.525
12.64166667,-0.545
12.64444444,-0.545
12.64722222,-0.545
12.65,-0.535
12.65277778,-0.55
12.65555556,-0.565
12.65833333,-0.585
12.66111111,-0.61
12.66388889,-0.59
12.66666667,-0.58
12.66944444,-0.575
12.67222222,-0.605
12.675,-0.635
12.67777778,-0.635
12.68055556,-0.62
12.68333333,-0.62
12.68611111,-0.63
12.68888889,-0.66
12.69166667,-0.68
12.69444444,-0.705
12.69722222,-0.705
12.7,-0.69
12.70277778,-0.7
12.70555556,-0.725
12.70833333,-0.75
12.71111111,-0.755
12.71388889,-0.76
12.71666667,-0.74
12.71944444,-0.74
12.72222222,-0.74
12.725,-0.76
12.72777778,-0.765
12.73055556,-0.745
12.73333333,-0.745
12.73611111,-0.745
12.73888889,-0.755
12.74166667,-0.745
12.74444444,-0.72
12.74722222,-0.705
12.75,-0.69
12.75277778,-0.67
12.75555556,-0.665
12.75833333,-0.64
12.76111111,-0.615
12.76388889,-0.585
12.76666667,-0.57
12.76944444,-0.555
12.77222222,-0.555
12.775,-0.545
12.77777778,-0.515
12.78055556,-0.485
12.78333333,-0.445
12.78611111,-0.415
12.78888889,-0.42
12.79166667,-0.4
12.79444444,-0.375
12.79722222,-0.345
12.8,-0.32
12.80277778,-0.315
12.80555556,-0.31
12.80833333,-0.31
12.81111111,-0.29
12.81388889,-0.28
12.81666667,-0.27
12.81944444,-0.27
12.82222222,-0.285
12.825,-0.31
12.82777778,-0.3
12.83055556,-0.275
12.83333333,-0.24
12.83611111,-0.245
12.83888889,-0.26
12.84166667,-0.275
12.84444444,-0.27
12.84722222,-0.26
12.85,-0.245
12.85277778,-0.245
12.85555556,-0.25
12.85833333,-0.26
12.86111111,-0.285
12.86388889,-0.26
12.86666667,-0.26
12.86944444,-0.26
12.87222222,-0.265
12.875,-0.28
12.87777778,-0.28
12.88055556,-0.28
12.88333333,-0.25
12.88611111,-0.255
12.88888889,-0.28
12.89166667,-0.28
12.89444444,-0.27
12.89722222,-0.27
12.9,-0.265
12.90277778,-0.27
12.90555556,-0.295
12.90833333,-0.3
12.91111111,-0.29
12.91388889,-0.26
12.91666667,-0.255
12.91944444,-0.27
12.92222222,-0.28
12.925,-0.315
12.92777778,-0.31
12.93055556,-0.285
12.93333333,-0.26
12.93611111,-0.275
12.93888889,-0.295
12.94166667,-0.305
12.94444444,-0.32
12.94722222,-0.3
12.95,-0.28
12.95277778,-0.275
12.95555556,-0.285
12.95833333,-0.285
12.96111111,-0.29
12.96388889,-0.295
12.96666667,-0.29
12.96944444,-0.285
12.97222222,-0.29
12.975,-0.285
12.97777778,-0.285
12.98055556,-0.295
12.98333333,-0.275
12.98611111,-0.29
12.98888889,-0.29
12.99166667,-0.295
12.99444444,-0.29
12.99722222,-0.27
13,-0.275
13.00277778,-0.275
13.00555556,-0.275
13.00833333,-0.3
13.01111111,-0.285
13.01388889,-0.27
13.01666667,-0.265
13.01944444,-0.265
13.02222222,-0.27
13.025,-0.29
13.02777778,-0.28
13.03055556,-0.28
13.03333333,-0.245
13.03611111,-0.24
13.03888889,-0.225
13.04166667,-0.24
13.04444444,-0.24
13.04722222,-0.225
13.05,-0.22
13.05277778,-0.22
13.05555556,-0.235
13.05833333,-0.215
13.06111111,-0.215
13.06388889,-0.2
13.06666667,-0.195
13.06944444,-0.185
13.07222222,-0.185
13.075,-0.185
13.07777778,-0.175
13.08055556,-0.165
13.08333333,-0.165
13.08611111,-0.17
13.08888889,-0.185
13.09166667,-0.185
13.09444444,-0.18
13.09722222,-0.165
13.1,-0.16
13.10277778,-0.175
13.10555556,-0.2
13.10833333,-0.22
13.11111111,-0.215
13.11388889,-0.19
13.11666667,-0.19
13.11944444,-0.215
13.12222222,-0.25
13.125,-0.265
13.12777778,-0.285
13.13055556,-0.27
13.13333333,-0.255
13.13611111,-0.25
13.13888889,-0.245
13.14166667,-0.25
13.14444444,-0.235
13.14722222,-0.24
13.15,-0.24
13.15277778,-0.255
13.15555556,-0.27
13.15833333,-0.28
13.16111111,-0.27
13.16388889,-0.25
13.16666667,-0.24
13.16944444,-0.25
13.17222222,-0.25
13.175,-0.265
13.17777778,-0.265
13.18055556,-0.265
13.18333333,-0.245
13.18611111,-0.235
13.18888889,-0.25
13.19166667,-0.245
13.19444444,-0.235
13.19722222,-0.235
13.2,-0.215
13.20277778,-0.16
13.20555556,-0.065
13.20833333,0.06
13.21111111,0.21
13.21388889,0.315
13.21666667,0.445
13.21944444,0.56
13.22222222,0.695
13.225,0.89
13.22777778,1.1
13.23055556,1.28
13.23333333,1.44
13.23611111,1.56
13.23888889,1.69
13.24166667,1.825
13.24444444,1.925
13.24722222,1.95
13.25,1.875
13.25277778,1.665
13.25555556,1.335
13.25833333,0.94
13.26111111,0.59
13.26388889,0.375
13.26666667,0.315
13.26944444,0.29
13.27222222,0.27
13.275,0.23
13.27777778,0.185
13.28055556,0.15
13.28333333,0.125
13.28611111,0.095
13.28888889,0.06
13.29166667,0.015
13.29444444,-0.02
13.29722222,-0.04
13.3,-0.045
13.30277778,-0.09
13.30555556,-0.145
13.30833333,-0.185
13.31111111,-0.255
13.31388889,-0.27
13.31666667,-0.29
13.31944444,-0.335
13.32222222,-0.36
13.325,-0.4
13.32777778,-0.425
13.33055556,-0.43
13.33333333,-0.43
13.33611111,-0.445
13.33888889,-0.465
13.34166667,-0.455
13.34444444,-0.47
13.34722222,-0.44
13.35,-0.425
13.35277778,-0.445
13.35555556,-0.46
13.35833333,-0.485
13.36111111,-0.485
13.36388889,-0.475
13.36666667,-0.455
13.36944444,-0.455
13.37222222,-0.48
13.375,-0.505
13.37777778,-0.51
13.38055556,-0.51
13.38333333,-0.48
13.38611111,-0.485
13.38888889,-0.5
13.39166667,-0.51
13.39444444,-0.51
13.39722222,-0.5
13.4,-0.505
13.40277778,-0.52
13.40555556,-0.535
13.40833333,-0.55
13.41111111,-0.535
13.41388889,-0.55
13.41666667,-0.545
13.41944444,-0.555
13.42222222,-0.585
13.425,-0.61
13.42777778,-0.59
13.43055556,-0.585
13.43333333,-0.595
13.43611111,-0.6
13.43888889,-0.63
13.44166667,-0.66
13.44444444,-0.655
13.44722222,-0.635
13.45,-0.625
13.45277778,-0.63
13.45555556,-0.665
13.45833333,-0.69
13.46111111,-0.685
13.46388889,-0.69
13.46666667,-0.685
13.46944444,-0.675
13.47222222,-0.695
13.475,-0.72
13.47777778,-0.73
13.48055556,-0.715
13.48333333,-0.695
13.48611111,-0.705
13.48888889,-0.71
13.49166667,-0.72
13.49444444,-0.715
13.49722222,-0.705
13.5,-0.67
13.50277778,-0.66
13.50555556,-0.66
13.50833333,-0.655
13.51111111,-0.625
13.51388889,-0.605
13.51666667,-0.575
13.51944444,-0.555
13.52222222,-0.55
13.525,-0.52
13.52777778,-0.48
13.53055556,-0.44
13.53333333,-0.41
13.53611111,-0.4
13.53888889,-0.405
13.54166667,-0.38
13.54444444,-0.365
13.54722222,-0.315
13.55,-0.295
13.55277778,-0.29
13.55555556,-0.295
13.55833333,-0.3
13.56111111,-0.295
13.56388889,-0.275
13.56666667,-0.245
13.56944444,-0.245
13.57222222,-0.255
13.575,-0.27
13.57777778,-0.27
13.58055556,-0.25
13.58333333,-0.235
13.58611111,-0.235
13.58888889,-0.25
13.59166667,-0.255
13.59444444,-0.255
13.59722222,-0.27
13.6,-0.245
13.60277778,-0.24
13.60555556,-0.25
13.60833333,-0.26
13.61111111,-0.245
13.61388889,-0.245
13.61666667,-0.225
13.61944444,-0.24
13.62222222,-0.26
13.625,-0.27
13.62777778,-0.28
13.63055556,-0.24
13.63333333,-0.235
13.63611111,-0.245
13.63888889,-0.27
13.64166667,-0.28
13.64444444,-0.265
13.64722222,-0.265
13.65,-0.245
13.65277778,-0.245
13.65555556,-0.26
13.65833333,-0.27
13.66111111,-0.275
13.66388889,-0.27
13.66666667,-0.255
13.66944444,-0.26
13.67222222,-0.27
13.675,-0.28
13.67777778,-0.285
13.68055556,-0.27
13.68333333,-0.265
13.68611111,-0.28
13.68888889,-0.29
13.69166667,-0.28
13.69444444,-0.265
13.69722222,-0.275
13.7,-0.27
13.70277778,-0.275
13.70555556,-0.28
13.70833333,-0.275
13.71111111,-0.265
13.71388889,-0.255
13.71666667,-0.245
13.71944444,-0.245
13.72222222,-0.27
13.725,-0.275
13.72777778,-0.275
13.73055556,-0.265
13.73333333,-0.245
13.73611111,-0.235
13.73888889,-0.24
13.74166667,-0.265
13.74444444,-0.26
13.74722222,-0.25
13.75,-0.23
13.75277778,-0.23
13.75555556,-0.23
13.75833333,-0.25
13.76111111,-0.24
13.76388889,-0.23
13.76666667,-0.23
13.76944444,-0.235
13.77222222,-0.255
13.775,-0.255
13.77777778,-0.245
13.78055556,-0.23
13.78333333,-0.225
13.78611111,-0.225
13.78888889,-0.245
13.79166667,-0.24
13.79444444,-0.225
13.79722222,-0.19
13.8,-0.175
13.80277778,-0.185
13.80555556,-0.19
13.80833333,-0.205
13.81111111,-0.2
13.81388889,-0.19
13.81666667,-0.175
13.81944444,-0.165
13.82222222,-0.19
13.825,-0.195
13.82777778,-0.2
13.83055556,-0.18
13.83333333,-0.17
13.83611111,-0.17
13.83888889,-0.17
13.84166667,-0.185
13.84444444,-0.185
13.84722222,-0.175
13.85,-0.175
13.85277778,-0.19
13.85555556,-0.185
13.85833333,-0.2
13.86111111,-0.2
13.86388889,-0.195
13.86666667,-0.19
13.86944444,-0.19
13.87222222,-0.21
13.875,-0.245
13.87777778,-0.25
13.88055556,-0.24
13.88333333,-0.24
13.88611111,-0.245
13.88888889,-0.265
13.89166667,-0.295
13.89444444,-0.29
13.89722222,-0.27
13.9,-0.25
13.90277778,-0.24
13.90555556,-0.265
13.90833333,-0.29
13.91111111,-0.295
13.91388889,-0.285
13.91666667,-0.275
13.91944444,-0.275
13.92222222,-0.27
13.925,-0.27
13.92777778,-0.285
13.93055556,-0.27
13.93333333,-0.255
13.93611111,-0.265
13.93888889,-0.275
13.94166667,-0.275
13.94444444,-0.275
13.94722222,-0.25
13.95,-0.245
13.95277778,-0.24
13.95555556,-0.265
13.95833333,-0.265
13.96111111,-0.23
13.96388889,-0.145
13.96666667,-0.035
13.96944444,0.045
13.97222222,0.12
13.975,0.17
13.97777778,0.235
13.98055556,0.335
13.98333333,0.475
13.98611111,0.62
13.98888889,0.775
13.99166667,0.94
13.99444444,1.17
13.99722222,1.41
14,1.645
14.00277778,1.835
14.00555556,1.93
14.00833333,1.945
14.01111111,1.88
14.01388889,1.705
14.01666667,1.395
14.01944444,1.045
14.02222222,0.725
14.025,0.525
14.02777778,0.415
14.03055556,0.335
14.03333333,0.295
14.03611111,0.24
14.03888889,0.205
14.04166667,0.195
14.04444444,0.165
14.04722222,0.15
14.05,0.105
14.05277778,0.06
14.05555556,0.005
14.05833333,-0.04
14.06111111,-0.075
14.06388889,-0.09
14.06666667,-0.12
14.06944444,-0.16
14.07222222,-0.215
14.075,-0.265
14.07777778,-0.29
14.08055556,-0.305
14.08333333,-0.3
14.08611111,-0.335
14.08888889,-0.375
14.09166667,-0.405
14.09444444,-0.44
14.09722222,-0.43
14.1,-0.43
14.10277778,-0.45
14.10555556,-0.465
14.10833333,-0.485
14.11111111,-0.485
14.11388889,-0.48
14.11666667,-0.455
14.11944444,-0.46
14.12222222,-0.49
14.125,-0.51
14.12777778,-0.5
14.13055556,-0.49
14.13333333,-0.49
14.13611111,-0.485
14.13888889,-0.5
14.14166667,-0.515
14.14444444,-0.515
14.14722222,-0.515
14.15,-0.51
14.15277778,-0.535
14.15555556,-0.54
14.15833333,-0.565
14.16111111,-0.545
14.16388889,-0.545
14.16666667,-0.535
14.16944444,-0.55
14.17222222,-0.56
14.175,-0.59
14.17777778,-0.58
14.18055556,-0.56
14.18333333,-0.555
14.18611111,-0.565
14.18888889,-0.59
14.19166667,-0.615
14.19444444,-0.62
14.19722222,-0.625
14.2,-0.615
14.20277778,-0.625
14.20555556,-0.635
14.20833333,-0.655
14.21111111,-0.67
14.21388889,-0.66
14.21666667,-0.64
14.21944444,-0.665
14.22222222,-0.68
14.225,-0.7
14.22777778,-0.71
14.23055556,-0.7
14.23333333,-0.685
14.23611111,-0.7
14.23888889,-0.705
14.24166667,-0.71
14.24444444,-0.705
14.24722222,-0.71
14.25,-0.68
14.25277778,-0.705
14.25555556,-0.71
14.25833333,-0.715
14.26111111,-0.69
14.26388889,-0.66
14.26666667,-0.635
14.26944444,-0.625
14.27222222,-0.63
14.275,-0.625
14.27777778,-0.605
14.28055556,-0.565
14.28333333,-0.535
14.28611111,-0.52
14.28888889,-0.515
14.29166667,-0.5
14.29444444,-0.46
14.29722222,-0.425
14.3,-0.385
14.30277778,-0.375
14.30555556,-0.36
14.30833333,-0.365
14.31111111,-0.355
14.31388889,-0.32
14.31666667,-0.285
14.31944444,-0.285
14.32222222,-0.29
14.325,-0.3
14.32777778,-0.29
14.33055556,-0.285
14.33333333,-0.27
14.33611111,-0.28
14.33888889,-0.28
14.34166667,-0.28
14.34444444,-0.285
14.34722222,-0.27
14.35,-0.26
14.35277778,-0.265
14.35555556,-0.265
14.35833333,-0.28
14.36111111,-0.275
14.36388889,-0.27
14.36666667,-0.265
14.36944444,-0.275
14.37222222,-0.28
14.375,-0.285
14.37777778,-0.275
14.38055556,-0.265
14.38333333,-0.255
14.38611111,-0.28
14.38888889,-0.3
14.39166667,-0.305
14.39444444,-0.31
14.39722222,-0.295
14.4,-0.275
14.40277778,-0.27
14.40555556,-0.295
14.40833333,-0.31
14.41111111,-0.325
14.41388889,-0.305
14.41666667,-0.29
14.41944444,-0.295
14.42222222,-0.315
14.425,-0.325
14.42777778,-0.325
14.43055556,-0.31
14.43333333,-0.305
14.43611111,-0.3
14.43888889,-0.305
14.44166667,-0.315
14.44444444,-0.3
14.44722222,-0.295
14.45,-0.29
14.45277778,-0.305
14.45555556,-0.335
14.45833333,-0.325
14.46111111,-0.315
14.46388889,-0.305
14.46666667,-0.29
14.46944444,-0.295
14.47222222,-0.31
14.475,-0.315
14.47777778,-0.31
14.48055556,-0.295
14.48333333,-0.265
14.48611111,-0.265
14.48888889,-0.275
14.49166667,-0.305
14.49444444,-0.315
14.49722222,-0.31
14.5,-0.285
14.50277778,-0.28
14.50555556,-0.28
14.50833333,-0.3
14.51111111,-0.3
14.51388889,-0.285
14.51666667,-0.275
14.51944444,-0.275
14.52222222,-0.285
14.525,-0.31
14.52777778,-0.3
14.53055556,-0.295
14.53333333,-0.28
14.53611111,-0.275
14.53888889,-0.28
14.54166667,-0.29
14.54444444,-0.28
14.54722222,-0.265
14.55,-0.25
14.55277778,-0.26
14.55555556,-0.28
14.55833333,-0.265
14.56111111,-0.255
14.56388889,-0.235
14.56666667,-0.22
14.56944444,-0.2
14.57222222,-0.21
14.575,-0.22
14.57777778,-0.215
14.58055556,-0.21
14.58333333,-0.205
14.58611111,-0.215
14.58888889,-0.215
14.59166667,-0.22
14.59444444,-0.215
14.59722222,-0.2
14.6,-0.195
14.60277778,-0.195
14.60555556,-0.205
14.60833333,-0.225
14.61111111,-0.23
14.61388889,-0.215
14.61666667,-0.21
14.61944444,-0.21
14.62222222,-0.22
14.625,-0.235
14.62777778,-0.24
14.63055556,-0.235
14.63333333,-0.24
14.63611111,-0.255
14.63888889,-0.27
14.64166667,-0.305
14.64444444,-0.295
14.64722222,-0.28
14.65,-0.265
14.65277778,-0.265
14.65555556,-0.295
14.65833333,-0.325
14.66111111,-0.325
14.66388889,-0.32
14.66666667,-0.295
14.66944444,-0.29
14.67222222,-0.285
14.675,-0.3
14.67777778,-0.31
14.68055556,-0.32
14.68333333,-0.31
14.68611111,-0.305
14.68888889,-0.32
14.69166667,-0.33
14.69444444,-0.32
14.69722222,-0.31
14.7,-0.3
14.70277778,-0.31
14.70555556,-0.315
14.70833333,-0.325
14.71111111,-0.3
14.71388889,-0.295
14.71666667,-0.275
14.71944444,-0.27
14.72222222,-0.28
14.725,-0.3
14.72777778,-0.295
14.73055556,-0.27
14.73333333,-0.225
14.73611111,-0.15
14.73888889,-0.05
14.74166667,0.05
14.74444444,0.16
14.74722222,0.27
14.75,0.37
14.75277778,0.485
14.75555556,0.555
14.75833333,0.635
14.76111111,0.73
14.76388889,0.86
14.76666667,0.985
14.76944444,1.13
14.77222222,1.34
14.775,1.53
14.77777778,1.705
14.78055556,1.84
14.78333333,1.885
14.78611111,1.85
14.78888889,1.735
14.79166667,1.525
14.79444444,1.22
14.79722222,0.945
14.8,0.7
14.80277778,0.525
14.80555556,0.4
14.80833333,0.315
14.81111111,0.28
14.81388889,0.25
14.81666667,0.255
14.81944444,0.225
14.82222222,0.185
14.825,0.155
14.82777778,0.125
14.83055556,0.085
14.83333333,0.05
14.83611111,0.005
14.83888889,-0.045
14.84166667,-0.085
14.84444444,-0.1
14.84722222,-0.12
14.85,-0.135
14.85277778,-0.195
14.85555556,-0.255
14.85833333,-0.31
14.86111111,-0.335
14.86388889,-0.35
14.86666667,-0.36
14.86944444,-0.385
14.87222222,-0.42
14.875,-0.465
14.87777778,-0.465
14.88055556,-0.465
14.88333333,-0.46
14.88611111,-0.47
14.88888889,-0.505
14.89166667,-0.525
14.89444444,-0.525
14.89722222,-0.51
14.9,-0.495
14.90277778,-0.505
14.90555556,-0.52
14.90833333,-0.52
14.91111111,-0.54
14.91388889,-0.52
14.91666667,-0.515
14.91944444,-0.525
14.92222222,-0.56
14.925,-0.55
14.92777778,-0.55
14.93055556,-0.55
14.93333333,-0.53
14.93611111,-0.54
14.93888889,-0.565
14.94166667,-0.57
14.94444444,-0.595
14.94722222,-0.575
14.95,-0.555
14.95277778,-0.555
14.95555556,-0.57
14.95833333,-0.61
14.96111111,-0.615
14.96388889,-0.615
14.96666667,-0.615
14.96944444,-0.605
14.97222222,-0.615
14.975,-0.62
14.97777778,-0.63
14.98055556,-0.645
14.98333333,-0.65
14.98611111,-0.665
14.98888889,-0.685
14.99166667,-0.71
14.99444444,-0.69
14.99722222,-0.685
15,-0.68
15.00277778,-0.695
15.00555556,-0.715
15.00833333,-0.73
15.01111111,-0.75
15.01388889,-0.74
15.01666667,-0.72
15.01944444,-0.73
15.02222222,-0.76
15.025,-0.77
15.02777778,-0.785
15.03055556,-0.8
15.03333333,-0.795
15.03611111,-0.79
15.03888889,-0.78
15.04166667,-0.785
15.04444444,-0.78
15.04722222,-0.79
15.05,-0.79
15.05277778,-0.79
15.05555556,-0.795
15.05833333,-0.78
15.06111111,-0.785
15.06388889,-0.76
15.06666667,-0.735
15.06944444,-0.72
15.07222222,-0.71
15.075,-0.715
15.07777778,-0.695
15.08055556,-0.675
15.08333333,-0.635
15.08611111,-0.615
15.08888889,-0.585
15.09166667,-0.565
15.09444444,-0.545
15.09722222,-0.545
15.1,-0.49
15.10277778,-0.47
15.10555556,-0.475
15.10833333,-0.465
15.11111111,-0.435
15.11388889,-0.41
15.11666667,-0.38
15.11944444,-0.39
15.12222222,-0.39
15.125,-0.395
15.12777778,-0.37
15.13055556,-0.345
15.13333333,-0.32
15.13611111,-0.31
15.13888889,-0.305
15.14166667,-0.335
15.14444444,-0.34
15.14722222,-0.315
15.15,-0.295
15.15277778,-0.29
15.15555556,-0.285
15.15833333,-0.305
15.16111111,-0.315
15.16388889,-0.295
15.16666667,-0.285
15.16944444,-0.275
15.17222222,-0.3
15.175,-0.295
15.17777778,-0.3
15.18055556,-0.29
15.18333333,-0.28
15.18611111,-0.275
15.18888889,-0.3
15.19166667,-0.325
15.19444444,-0.32
15.19722222,-0.305
15.2,-0.29
15.20277778,-0.285
15.20555556,-0.29
15.20833333,-0.31
15.21111111,-0.32
15.21388889,-0.3
15.21666667,-0.3
15.21944444,-0.305
15.22222222,-0.305
15.225,-0.315
15.22777778,-0.315
15.23055556,-0.285
15.23333333,-0.275
15.23611111,-0.3
15.23888889,-0.325
15.24166667,-0.325
15.24444444,-0.325
15.24722222,-0.305
15.25,-0.3
15.25277778,-0.3
15.25555556,-0.31
15.25833333,-0.32
15.26111111,-0.35
15.26388889,-0.335
15.26666667,-0.32
15.26944444,-0.315
15.27222222,-0.32
15.275,-0.345
15.27777778,-0.34
15.28055556,-0.34
15.28333333,-0.33
15.28611111,-0.33
15.28888889,-0.345
15.29166667,-0.35
15.29444444,-0.325
15.29722222,-0.31
15.3,-0.305
15.30277778,-0.32
15.30555556,-0.33
15.30833333,-0.345
15.31111111,-0.335
15.31388889,-0.32
15.31666667,-0.29
15.31944444,-0.29
15.32222222,-0.305
15.325,-0.33
15.32777778,-0.36
15.33055556,-0.33
15.33333333,-0.315
15.33611111,-0.3
15.33888889,-0.305
15.34166667,-0.31
15.34444444,-0.31
15.34722222,-0.295
15.35,-0.275
15.35277778,-0.28
15.35555556,-0.31
15.35833333,-0.33
15.36111111,-0.325
15.36388889,-0.305
15.36666667,-0.28
15.36944444,-0.28
15.37222222,-0.29
15.375,-0.315
15.37777778,-0.31
15.38055556,-0.305
15.38333333,-0.295
15.38611111,-0.285
15.38888889,-0.3
15.39166667,-0.295
15.39444444,-0.285
15.39722222,-0.255
15.4,-0.235
15.40277778,-0.225
15.40555556,-0.225
15.40833333,-0.24
15.41111111,-0.23
15.41388889,-0.21
15.41666667,-0.215
15.41944444,-0.22
15.42222222,-0.255
15.425,-0.255
15.42777778,-0.25
15.43055556,-0.235
15.43333333,-0.22
15.43611111,-0.215
15.43888889,-0.205
15.44166667,-0.205
15.44444444,-0.22
15.44722222,-0.215
15.45,-0.2
15.45277778,-0.21
15.45555556,-0.215
15.45833333,-0.235
15.46111111,-0.22
15.46388889,-0.21
15.46666667,-0.195
15.46944444,-0.2
15.47222222,-0.21
15.475,-0.215
15.47777778,-0.245
15.48055556,-0.22
15.48333333,-0.225
15.48611111,-0.23
15.48888889,-0.25
15.49166667,-0.275
15.49444444,-0.26
15.49722222,-0.275
15.5,-0.27
15.50277778,-0.27
15.50555556,-0.275
15.50833333,-0.29
15.51111111,-0.32
15.51388889,-0.305
15.51666667,-0.29
15.51944444,-0.29
15.52222222,-0.275
15.525,-0.285
15.52777778,-0.275
15.53055556,-0.265
15.53333333,-0.27
15.53611111,-0.28
15.53888889,-0.29
15.54166667,-0.305
15.54444444,-0.3
15.54722222,-0.28
15.55,-0.27
15.55277778,-0.275
15.55555556,-0.275
15.55833333,-0.29
15.56111111,-0.285
15.56388889,-0.28
15.56666667,-0.275
15.56944444,-0.265
15.57222222,-0.265
15.575,-0.285
15.57777778,-0.27
15.58055556,-0.245
15.58333333,-0.245
15.58611111,-0.245
15.58888889,-0.26
15.59166667,-0.285
15.59444444,-0.295
15.59722222,-0.295
15.6,-0.28
15.60277778,-0.26
15.60555556,-0.215
15.60833333,-0.15
15.61111111,-0.035
15.61388889,0.065
15.61666667,0.165
15.61944444,0.25
15.62222222,0.32
15.625,0.4
15.62777778,0.495
15.63055556,0.625
15.63333333,0.765
15.63611111,0.9
15.63888889,1.055
15.64166667,1.21
15.64444444,1.375
15.64722222,1.55
15.65,1.72
15.65277778,1.845
15.65555556,1.925
15.65833333,1.98
15.66111111,1.99
15.66388889,2.005
15.66666667,1.99
15.66944444,1.935
15.67222222,1.835
15.675,1.64
15.67777778,1.37
15.68055556,1.055
15.68333333,0.75
15.68611111,0.545
15.68888889,0.395
15.69166667,0.29
15.69444444,0.23
15.69722222,0.21
15.7,0.195
15.70277778,0.155
15.70555556,0.135
15.70833333,0.095
15.71111111,0.07
15.71388889,0.055
15.71666667,0.04
15.71944444,0
15.72222222,-0.04
15.725,-0.08
15.72777778,-0.11
15.73055556,-0.1
15.73333333,-0.1
15.73611111,-0.105
15.73888889,-0.125
15.74166667,-0.145
15.74444444,-0.18
15.74722222,-0.185
15.75,-0.205
15.75277778,-0.24
15.75555556,-0.29
15.75833333,-0.33
15.76111111,-0.355
15.76388889,-0.35
15.76666667,-0.37
15.76944444,-0.39
15.77222222,-0.415
15.775,-0.455
15.77777778,-0.475
15.78055556,-0.48
15.78333333,-0.455
15.78611111,-0.46
15.78888889,-0.475
15.79166667,-0.475
15.79444444,-0.48
15.79722222,-0.46
15.8,-0.44
15.80277778,-0.45
15.80555556,-0.48
15.80833333,-0.495
15.81111111,-0.5
15.81388889,-0.495
15.81666667,-0.495
15.81944444,-0.495
15.82222222,-0.51
15.825,-0.53
15.82777778,-0.51
15.83055556,-0.505
15.83333333,-0.485
15.83611111,-0.495
15.83888889,-0.515
15.84166667,-0.54
15.84444444,-0.535
15.84722222,-0.52
15.85,-0.505
15.85277778,-0.505
15.85555556,-0.53
15.85833333,-0.545
15.86111111,-0.545
15.86388889,-0.535
15.86666667,-0.525
15.86944444,-0.535
15.87222222,-0.545
15.875,-0.56
15.87777778,-0.57
15.88055556,-0.555
15.88333333,-0.535
15.88611111,-0.54
15.88888889,-0.555
15.89166667,-0.575
15.89444444,-0.59
15.89722222,-0.58
15.9,-0.57
15.90277778,-0.57
15.90555556,-0.575
15.90833333,-0.605
15.91111111,-0.605
15.91388889,-0.615
15.91666667,-0.6
15.91944444,-0.62
15.92222222,-0.63
15.925,-0.645
15.92777778,-0.66
15.93055556,-0.635
15.93333333,-0.635
15.93611111,-0.645
15.93888889,-0.645
15.94166667,-0.655
15.94444444,-0.66
15.94722222,-0.655
15.95,-0.655
15.95277778,-0.675
15.95555556,-0.71
15.95833333,-0.715
15.96111111,-0.7
15.96388889,-0.7
15.96666667,-0.695
15.96944444,-0.7
15.97222222,-0.715
15.975,-0.725
15.97777778,-0.73
15.98055556,-0.725
15.98333333,-0.705
15.98611111,-0.71
15.98888889,-0.715
15.99166667,-0.73
15.99444444,-0.73
15.99722222,-0.71
16,-0.7
16.00277778,-0.695
16.00555556,-0.705
16.00833333,-0.71
16.01111111,-0.69
16.01388889,-0.685
16.01666667,-0.645
16.01944444,-0.645
16.02222222,-0.645
16.025,-0.635
16.02777778,-0.61
16.03055556,-0.585
16.03333333,-0.555
16.03611111,-0.55
16.03888889,-0.53
16.04166667,-0.525
16.04444444,-0.515
16.04722222,-0.48
16.05,-0.46
16.05277778,-0.455
16.05555556,-0.43
16.05833333,-0.425
16.06111111,-0.39
16.06388889,-0.355
16.06666667,-0.335
16.06944444,-0.33
16.07222222,-0.335
16.075,-0.33
16.07777778,-0.34
16.08055556,-0.325
16.08333333,-0.305
16.08611111,-0.315
16.08888889,-0.295
16.09166667,-0.305
16.09444444,-0.295
16.09722222,-0.285
16.1,-0.255
16.10277778,-0.265
16.10555556,-0.28
16.10833333,-0.28
16.11111111,-0.285
16.11388889,-0.26
16.11666667,-0.255
16.11944444,-0.255
16.12222222,-0.285
16.125,-0.295
16.12777778,-0.285
16.13055556,-0.285
16.13333333,-0.26
16.13611111,-0.255
16.13888889,-0.27
16.14166667,-0.285
16.14444444,-0.3
16.14722222,-0.285
16.15,-0.27
16.15277778,-0.265
16.15555556,-0.285
16.15833333,-0.29
16.16111111,-0.295
16.16388889,-0.285
16.16666667,-0.285
16.16944444,-0.29
16.17222222,-0.295
16.175,-0.29
16.17777778,-0.28
16.18055556,-0.275
16.18333333,-0.27
16.18611111,-0.25
16.18888889,-0.285
16.19166667,-0.3
16.19444444,-0.32
16.19722222,-0.305
16.2,-0.27
16.20277778,-0.28
16.20555556,-0.28
16.20833333,-0.31
16.21111111,-0.32
16.21388889,-0.28
16.21666667,-0.265
16.21944444,-0.265
16.22222222,-0.28
16.225,-0.305
16.22777778,-0.305
16.23055556,-0.29
16.23333333,-0.27
16.23611111,-0.275
16.23888889,-0.28
16.24166667,-0.295
16.24444444,-0.29
16.24722222,-0.275
16.25,-0.265
16.25277778,-0.275
16.25555556,-0.295
16.25833333,-0.3
16.26111111,-0.285
16.26388889,-0.285
16.26666667,-0.26
16.26944444,-0.265
16.27222222,-0.29
16.275,-0.305
16.27777778,-0.315
16.28055556,-0.275
16.28333333,-0.245
16.28611111,-0.255
16.28888889,-0.26
16.29166667,-0.285
16.29444444,-0.285
16.29722222,-0.285
16.3,-0.27
16.30277778,-0.285
16.30555556,-0.29
16.30833333,-0.31
16.31111111,-0.285
16.31388889,-0.29
16.31666667,-0.275
16.31944444,-0.27
16.32222222,-0.275
16.325,-0.285
16.32777778,-0.275
16.33055556,-0.24
16.33333333,-0.235
16.33611111,-0.235
16.33888889,-0.225
16.34166667,-0.235
16.34444444,-0.235
16.34722222,-0.2
16.35,-0.21
16.35277778,-0.2
16.35555556,-0.205
16.35833333,-0.22
16.36111111,-0.23
16.36388889,-0.21
16.36666667,-0.19
16.36944444,-0.165
16.37222222,-0.185
16.375,-0.195
16.37777778,-0.215
16.38055556,-0.215
16.38333333,-0.195
16.38611111,-0.19
16.38888889,-0.205
16.39166667,-0.21
16.39444444,-0.21
16.39722222,-0.22
16.4,-0.21
16.40277778,-0.23
16.40555556,-0.245
16.40833333,-0.245
16.41111111,-0.245
16.41388889,-0.235
16.41666667,-0.225
16.41944444,-0.26
16.42222222,-0.285
16.425,-0.31
16.42777778,-0.325
16.43055556,-0.305
16.43333333,-0.27
16.43611111,-0.275
16.43888889,-0.285
16.44166667,-0.315
16.44444444,-0.315
16.44722222,-0.285
16.45,-0.285
16.45277778,-0.295
16.45555556,-0.3
16.45833333,-0.31
16.46111111,-0.31
16.46388889,-0.3
16.46666667,-0.295
16.46944444,-0.295
16.47222222,-0.305
16.475,-0.305
16.47777778,-0.31
16.48055556,-0.28
16.48333333,-0.28
16.48611111,-0.285
16.48888889,-0.29
16.49166667,-0.3
16.49444444,-0.3
16.49722222,-0.29
16.5,-0.275
16.50277778,-0.29
16.50555556,-0.305
16.50833333,-0.315
16.51111111,-0.27
16.51388889,-0.195
16.51666667,-0.07
16.51944444,0.045
16.52222222,0.125
16.525,0.2
16.52777778,0.3
16.53055556,0.415
16.53333333,0.56
16.53611111,0.735
16.53888889,0.91
16.54166667,1.1
16.54444444,1.3
16.54722222,1.545
16.55,1.755
16.55277778,1.91
16.55555556,1.97
16.55833333,2
16.56111111,1.97
16.56388889,1.89
16.56666667,1.745
16.56944444,1.435
16.57222222,1.03
16.575,0.655
16.57777778,0.425
16.58055556,0.325
16.58333333,0.265
16.58611111,0.24
16.58888889,0.19
16.59166667,0.15
16.59444444,0.12
16.59722222,0.095
16.6,0.08
16.60277778,0.035
16.60555556,-0.015
16.60833333,-0.065
16.61111111,-0.085
16.61388889,-0.11
16.61666667,-0.11
16.61944444,-0.14
16.62222222,-0.18
16.625,-0.22
16.62777778,-0.245
16.63055556,-0.265
16.63333333,-0.29
16.63611111,-0.325
16.63888889,-0.365
16.64166667,-0.4
16.64444444,-0.415
16.64722222,-0.415
16.65,-0.42
16.65277778,-0.435
16.65555556,-0.455
16.65833333,-0.495
16.66111111,-0.495
16.66388889,-0.48
16.66666667,-0.46
16.66944444,-0.465
16.67222222,-0.475
16.675,-0.48
16.67777778,-0.49
16.68055556,-0.485
16.68333333,-0.485
16.68611111,-0.48
16.68888889,-0.485
16.69166667,-0.505
16.69444444,-0.51
16.69722222,-0.5
16.7,-0.495
16.70277778,-0.515
16.70555556,-0.515
16.70833333,-0.53
16.71111111,-0.53
16.71388889,-0.515
16.71666667,-0.52
16.71944444,-0.55
16.72222222,-0.585
16.725,-0.59
16.72777778,-0.585
16.73055556,-0.57
16.73333333,-0.545
16.73611111,-0.545
16.73888889,-0.575
16.74166667,-0.605
16.74444444,-0.59
16.74722222,-0.595
16.75,-0.585
16.75277778,-0.585
16.75555556,-0.605
16.75833333,-0.605
16.76111111,-0.625
16.76388889,-0.635
16.76666667,-0.635
16.76944444,-0.66
16.77222222,-0.67
16.775,-0.665
16.77777778,-0.645
16.78055556,-0.635
16.78333333,-0.64
16.78611111,-0.675
16.78888889,-0.72
16.79166667,-0.715
16.79444444,-0.72
16.79722222,-0.725
16.8,-0.715
16.80277778,-0.725
16.80555556,-0.74
16.80833333,-0.74
16.81111111,-0.745
16.81388889,-0.745
16.81666667,-0.73
16.81944444,-0.71
16.82222222,-0.72
16.825,-0.73
16.82777778,-0.725
16.83055556,-0.705
16.83333333,-0.65
16.83611111,-0.63
16.83888889,-0.64
16.84166667,-0.625
16.84444444,-0.62
16.84722222,-0.595
16.85,-0.55
16.85277778,-0.53
16.85555556,-0.52
16.85833333,-0.5
16.86111111,-0.495
16.86388889,-0.455
16.86666667,-0.405
16.86944444,-0.39
16.87222222,-0.38
16.875,-0.385
16.87777778,-0.365
16.88055556,-0.355
16.88333333,-0.335
16.88611111,-0.325
16.88888889,-0.335
16.89166667,-0.335
16.89444444,-0.325
16.89722222,-0.31
16.9,-0.295
16.90277778,-0.315
16.90555556,-0.325
16.90833333,-0.345
16.91111111,-0.33
16.91388889,-0.3
16.91666667,-0.29
16.91944444,-0.295
16.92222222,-0.33
16.925,-0.325
16.92777778,-0.33
16.93055556,-0.32
16.93333333,-0.295
16.93611111,-0.305
16.93888889,-0.32
16.94166667,-0.335
16.94444444,-0.34
16.94722222,-0.315
16.95,-0.305
16.95277778,-0.315
16.95555556,-0.335
16.95833333,-0.345
16.96111111,-0.365
16.96388889,-0.345
16.96666667,-0.33
16.96944444,-0.32
16.97222222,-0.335
16.975,-0.345
16.97777778,-0.355
16.98055556,-0.35
16.98333333,-0.335
16.98611111,-0.35
16.98888889,-0.36
16.99166667,-0.37
16.99444444,-0.385
16.99722222,-0.37
17,-0.35
17.00277778,-0.33
17.00555556,-0.35
17.00833333,-0.35
17.01111111,-0.355
17.01388889,-0.35
17.01666667,-0.335
17.01944444,-0.35
17.02222222,-0.35
17.025,-0.34
17.02777778,-0.36
17.03055556,-0.345
17.03333333,-0.34
17.03611111,-0.345
17.03888889,-0.335
17.04166667,-0.345
17.04444444,-0.33
17.04722222,-0.33
17.05,-0.315
17.05277778,-0.325
17.05555556,-0.34
17.05833333,-0.345
17.06111111,-0.35
17.06388889,-0.33
17.06666667,-0.31
17.06944444,-0.32
17.07222222,-0.335
17.075,-0.345
17.07777778,-0.335
17.08055556,-0.315
17.08333333,-0.305
17.08611111,-0.3
17.08888889,-0.315
17.09166667,-0.335
17.09444444,-0.335
17.09722222,-0.335
17.1,-0.31
17.10277778,-0.305
17.10555556,-0.315
17.10833333,-0.32
17.11111111,-0.32
17.11388889,-0.295
17.11666667,-0.27
17.11944444,-0.25
17.12222222,-0.26
17.125,-0.275
17.12777778,-0.285
17.13055556,-0.275
17.13333333,-0.25
17.13611111,-0.25
17.13888889,-0.245
17.14166667,-0.265
17.14444444,-0.265
17.14722222,-0.25
17.15,-0.255
17.15277778,-0.23
17.15555556,-0.255
17.15833333,-0.27
17.16111111,-0.265
17.16388889,-0.25
17.16666667,-0.235
17.16944444,-0.24
17.17222222,-0.255
17.175,-0.27
17.17777778,-0.28
17.18055556,-0.285
17.18333333,-0.265
17.18611111,-0.285
17.18888889,-0.325
17.19166667,-0.34
17.19444444,-0.355
17.19722222,-0.345
17.2,-0.335
17.20277778,-0.325
17.20555556,-0.335
17.20833333,-0.325
17.21111111,-0.34
17.21388889,-0.345
17.21666667,-0.345
17.21944444,-0.345
17.22222222,-0.34
17.225,-0.34
17.22777778,-0.325
17.23055556,-0.32
17.23333333,-0.315
17.23611111,-0.325
17.23888889,-0.34
17.24166667,-0.34
17.24444444,-0.34
17.24722222,-0.315
17.25,-0.3
17.25277778,-0.305
17.25555556,-0.325
17.25833333,-0.335
17.26111111,-0.315
17.26388889,-0.24
17.26666667,-0.115
17.26944444,-0.015
17.27222222,0.05
17.275,0.105
17.27777778,0.17
17.28055556,0.28
17.28333333,0.43
17.28611111,0.585
17.28888889,0.75
17.29166667,0.955
17.29444444,1.165
17.29722222,1.41
17.3,1.635
17.30277778,1.78
17.30555556,1.84
17.30833333,1.78
17.31111111,1.625
17.31388889,1.335
17.31666667,0.98
17.31944444,0.69
17.32222222,0.48
17.325,0.36
17.32777778,0.26
17.33055556,0.195
17.33333333,0.16
17.33611111,0.14
17.33888889,0.11
17.34166667,0.065
17.34444444,0.005
17.34722222,-0.04
17.35,-0.065
17.35277778,-0.1
17.35555556,-0.145
17.35833333,-0.17
17.36111111,-0.21
17.36388889,-0.25
17.36666667,-0.265
17.36944444,-0.31
17.37222222,-0.34
17.375,-0.37
17.37777778,-0.42
17.38055556,-0.43
17.38333333,-0.44
17.38611111,-0.465
17.38888889,-0.51
17.39166667,-0.515
17.39444444,-0.52
17.39722222,-0.51
17.4,-0.495
17.40277778,-0.525
17.40555556,-0.545
17.40833333,-0.545
17.41111111,-0.555
17.41388889,-0.535
17.41666667,-0.53
17.41944444,-0.55
17.42222222,-0.56
17.425,-0.57
17.42777778,-0.585
17.43055556,-0.565
17.43333333,-0.55
17.43611111,-0.565
17.43888889,-0.585
17.44166667,-0.59
17.44444444,-0.6
17.44722222,-0.6
17.45,-0.58
17.45277778,-0.59
17.45555556,-0.595
17.45833333,-0.62
17.46111111,-0.625
17.46388889,-0.63
17.46666667,-0.615
17.46944444,-0.63
17.47222222,-0.64
17.475,-0.645
17.47777778,-0.655
17.48055556,-0.655
17.48333333,-0.645
17.48611111,-0.65
17.48888889,-0.675
17.49166667,-0.68
17.49444444,-0.685
17.49722222,-0.685
17.5,-0.695
17.50277778,-0.71
17.50555556,-0.73
17.50833333,-0.755
17.51111111,-0.75
17.51388889,-0.74
17.51666667,-0.725
17.51944444,-0.74
17.52222222,-0.77
17.525,-0.8
17.52777778,-0.785
17.53055556,-0.775
17.53333333,-0.765
17.53611111,-0.755
17.53888889,-0.78
17.54166667,-0.79
17.54444444,-0.79
17.54722222,-0.755
17.55,-0.73
17.55277778,-0.72
17.55555556,-0.725
17.55833333,-0.735
17.56111111,-0.715
17.56388889,-0.685
17.56666667,-0.65
17.56944444,-0.62
17.57222222,-0.625
17.575,-0.605
17.57777778,-0.595
17.58055556,-0.545
17.58333333,-0.525
17.58611111,-0.485
17.58888889,-0.46
17.59166667,-0.445
17.59444444,-0.435
17.59722222,-0.425
17.6,-0.4
17.60277778,-0.38
17.60555556,-0.38
17.60833333,-0.38
17.61111111,-0.37
17.61388889,-0.375
17.61666667,-0.36
17.61944444,-0.36
17.62222222,-0.36
17.625,-0.355
17.62777778,-0.35
17.63055556,-0.335
17.63333333,-0.325
17.63611111,-0.335
17.63888889,-0.345
17.64166667,-0.36
17.64444444,-0.36
17.64722222,-0.345
17.65,-0.325
17.65277778,-0.345
17.65555556,-0.365
17.65833333,-0.37
17.66111111,-0.355
17.66388889,-0.345
17.66666667,-0.32
17.66944444,-0.33
17.67222222,-0.35
17.675,-0.375
17.67777778,-0.38
17.68055556,-0.38
17.68333333,-0.34
17.68611111,-0.35
17.68888889,-0.37
17.69166667,-0.38
17.69444444,-0.4
17.69722222,-0.365
17.7,-0.345
17.70277778,-0.36
17.70555556,-0.37
17.70833333,-0.39
17.71111111,-0.395
17.71388889,-0.36
17.71666667,-0.345
17.71944444,-0.37
17.72222222,-0.38
17.725,-0.385
17.72777778,-0.395
17.73055556,-0.38
17.73333333,-0.355
17.73611111,-0.365
17.73888889,-0.37
17.74166667,-0.375
17.74444444,-0.38
17.74722222,-0.37
17.75,-0.355
17.75277778,-0.36
17.75555556,-0.345
17.75833333,-0.35
17.76111111,-0.355
17.76388889,-0.355
17.76666667,-0.35
17.76944444,-0.355
17.77222222,-0.35
17.775,-0.355
17.77777778,-0.375
17.78055556,-0.385
17.78333333,-0.36
17.78611111,-0.345
17.78888889,-0.355
17.79166667,-0.355
17.79444444,-0.36
17.79722222,-0.355
17.8,-0.345
17.80277778,-0.355
17.80555556,-0.37
17.80833333,-0.365
17.81111111,-0.375
17.81388889,-0.355
17.81666667,-0.325
17.81944444,-0.325
17.82222222,-0.335
17.825,-0.33
17.82777778,-0.315
17.83055556,-0.295
17.83333333,-0.28
17.83611111,-0.275
17.83888889,-0.29
17.84166667,-0.29
17.84444444,-0.285
17.84722222,-0.27
17.85,-0.245
17.85277778,-0.26
17.85555556,-0.265
17.85833333,-0.27
17.86111111,-0.255
17.86388889,-0.24
17.86666667,-0.23
17.86944444,-0.245
17.87222222,-0.265
17.875,-0.28
17.87777778,-0.28
17.88055556,-0.265
17.88333333,-0.255
17.88611111,-0.255
17.88888889,-0.275
17.89166667,-0.305
17.89444444,-0.31
17.89722222,-0.305
17.9,-0.305
17.90277778,-0.29
17.90555556,-0.3
17.90833333,-0.32
17.91111111,-0.35
17.91388889,-0.35
17.91666667,-0.355
17.91944444,-0.345
17.92222222,-0.32
17.925,-0.335
17.92777778,-0.35
17.93055556,-0.35
17.93333333,-0.36
17.93611111,-0.35
17.93888889,-0.35
17.94166667,-0.35
17.94444444,-0.355
17.94722222,-0.35
17.95,-0.335
17.95277778,-0.35
17.95555556,-0.36
17.95833333,-0.365
17.96111111,-0.365
17.96388889,-0.35
17.96666667,-0.32
17.96944444,-0.325
17.97222222,-0.34
17.975,-0.345
17.97777778,-0.34
17.98055556,-0.31
17.98333333,-0.24
17.98611111,-0.135
17.98888889,-0.03
17.99166667,0.07
17.99444444,0.16
17.99722222,0.27
18,0.35
18.00277778,0.46
18.00555556,0.55
18.00833333,0.695
18.01111111,0.875
18.01388889,1.115
18.01666667,1.365
18.01944444,1.58
18.02222222,1.725
18.025,1.81
18.02777778,1.81
18.03055556,1.74
18.03333333,1.555
18.03611111,1.235
18.03888889,0.84
18.04166667,0.525
18.04444444,0.34
18.04722222,0.245
18.05,0.18
18.05277778,0.15
18.05555556,0.14
18.05833333,0.11
18.06111111,0.125
18.06388889,0.095
18.06666667,0.09
18.06944444,0.025
18.07222222,-0.02
18.075,-0.065
18.07777778,-0.095
18.08055556,-0.095
18.08333333,-0.115
18.08611111,-0.16
18.08888889,-0.215
18.09166667,-0.26
18.09444444,-0.28
18.09722222,-0.31
18.1,-0.32
18.10277778,-0.345
18.10555556,-0.375
18.10833333,-0.43
18.11111111,-0.455
18.11388889,-0.465
18.11666667,-0.475
18.11944444,-0.48
18.12222222,-0.485
18.125,-0.5
18.12777778,-0.51
18.13055556,-0.5
18.13333333,-0.49
18.13611111,-0.505
18.13888889,-0.51
18.14166667,-0.525
18.14444444,-0.53
18.14722222,-0.53
18.15,-0.52
18.15277778,-0.52
18.15555556,-0.535
18.15833333,-0.545
18.16111111,-0.55
18.16388889,-0.53
18.16666667,-0.53
18.16944444,-0.53
18.17222222,-0.555
18.175,-0.58
18.17777778,-0.565
18.18055556,-0.565
18.18333333,-0.55
18.18611111,-0.56
18.18888889,-0.59
18.19166667,-0.6
18.19444444,-0.61
18.19722222,-0.595
18.2,-0.59
18.20277778,-0.58
18.20555556,-0.605
18.20833333,-0.625
18.21111111,-0.645
18.21388889,-0.64
18.21666667,-0.63
18.21944444,-0.63
18.22222222,-0.64
18.225,-0.665
18.22777778,-0.68
18.23055556,-0.68
18.23333333,-0.68
18.23611111,-0.695
18.23888889,-0.695
18.24166667,-0.72
18.24444444,-0.735
18.24722222,-0.72
18.25,-0.73
18.25277778,-0.72
18.25555556,-0.74
18.25833333,-0.755
18.26111111,-0.765
18.26388889,-0.745
18.26666667,-0.745
18.26944444,-0.745
18.27222222,-0.75
18.275,-0.75
18.27777778,-0.76
18.28055556,-0.735
18.28333333,-0.71
18.28611111,-0.695
18.28888889,-0.7
18.29166667,-0.695
18.29444444,-0.685
18.29722222,-0.665
18.3,-0.615
18.30277778,-0.6
18.30555556,-0.575
18.30833333,-0.58
18.31111111,-0.56
18.31388889,-0.515
18.31666667,-0.46
18.31944444,-0.455
18.32222222,-0.425
18.325,-0.425
18.32777778,-0.415
18.33055556,-0.385
18.33333333,-0.35
18.33611111,-0.32
18.33888889,-0.32
18.34166667,-0.33
18.34444444,-0.335
18.34722222,-0.32
18.35,-0.31
18.35277778,-0.31
18.35555556,-0.31
18.35833333,-0.32
18.36111111,-0.31
18.36388889,-0.315
18.36666667,-0.3
18.36944444,-0.295
18.37222222,-0.295
18.375,-0.31
18.37777778,-0.315
18.38055556,-0.31
18.38333333,-0.305
18.38611111,-0.305
18.38888889,-0.325
18.39166667,-0.335
18.39444444,-0.325
18.39722222,-0.31
18.4,-0.305
18.40277778,-0.315
18.40555556,-0.325
18.40833333,-0.34
18.41111111,-0.34
18.41388889,-0.335
18.41666667,-0.305
18.41944444,-0.315
18.42222222,-0.355
18.425,-0.35
18.42777778,-0.355
18.43055556,-0.34
18.43333333,-0.32
18.43611111,-0.315
18.43888889,-0.33
18.44166667,-0.355
18.44444444,-0.36
18.44722222,-0.35
18.45,-0.325
18.45277778,-0.32
18.45555556,-0.325
18.45833333,-0.345
18.46111111,-0.35
18.46388889,-0.34
18.46666667,-0.33
18.46944444,-0.315
18.47222222,-0.325
18.475,-0.33
18.47777778,-0.35
18.48055556,-0.34
18.48333333,-0.33
18.48611111,-0.32
18.48888889,-0.32
18.49166667,-0.315
18.49444444,-0.33
18.49722222,-0.325
18.5,-0.305
18.50277778,-0.31
18.50555556,-0.33
18.50833333,-0.33
18.51111111,-0.34
18.51388889,-0.325
18.51666667,-0.31
18.51944444,-0.31
18.52222222,-0.33
18.525,-0.325
18.52777778,-0.315
18.53055556,-0.305
18.53333333,-0.295
18.53611111,-0.31
18.53888889,-0.33
18.54166667,-0.315
18.54444444,-0.325
18.54722222,-0.295
18.55,-0.29
18.55277778,-0.295
18.55555556,-0.3
18.55833333,-0.295
18.56111111,-0.26
18.56388889,-0.23
18.56666667,-0.22
18.56944444,-0.23
18.57222222,-0.235
18.575,-0.255
18.57777778,-0.24
18.58055556,-0.24
18.58333333,-0.22
18.58611111,-0.215
18.58888889,-0.225
18.59166667,-0.235
18.59444444,-0.225
18.59722222,-0.22
18.6,-0.2
18.60277778,-0.23
18.60555556,-0.255
18.60833333,-0.25
18.61111111,-0.25
18.61388889,-0.245
18.61666667,-0.22
18.61944444,-0.23
18.62222222,-0.26
18.625,-0.28
18.62777778,-0.295
18.63055556,-0.285
18.63333333,-0.28
18.63611111,-0.285
18.63888889,-0.31
18.64166667,-0.335
18.64444444,-0.345
18.64722222,-0.34
18.65,-0.3
18.65277778,-0.295
18.65555556,-0.305
18.65833333,-0.325
18.66111111,-0.34
18.66388889,-0.35
18.66666667,-0.34
18.66944444,-0.32
18.67222222,-0.315
18.675,-0.325
18.67777778,-0.335
18.68055556,-0.325
18.68333333,-0.31
18.68611111,-0.305
18.68888889,-0.315
18.69166667,-0.33
18.69444444,-0.33
18.69722222,-0.33
18.7,-0.31
18.70277778,-0.32
18.70555556,-0.335
18.70833333,-0.335
18.71111111,-0.31
18.71388889,-0.245
18.71666667,-0.135
18.71944444,-0.015
18.72222222,0.095
18.725,0.19
18.72777778,0.3
18.73055556,0.415
18.73333333,0.57
18.73611111,0.78
18.73888889,0.99
18.74166667,1.22
18.74444444,1.455
18.74722222,1.68
18.75,1.84
18.75277778,1.905
18.75555556,1.89
18.75833333,1.82
18.76111111,1.675
18.76388889,1.395
18.76666667,1.03
18.76944444,0.7
18.77222222,0.46
18.775,0.325
18.77777778,0.265
18.78055556,0.26
18.78333333,0.255
18.78611111,0.235
18.78888889,0.185
18.79166667,0.115
18.79444444,0.075
18.79722222,0.045
18.8,0.025
18.80277778,0
18.80555556,-0.035
18.80833333,-0.08
18.81111111,-0.125
18.81388889,-0.16
18.81666667,-0.195
18.81944444,-0.24
18.82222222,-0.29
18.825,-0.32
18.82777778,-0.35
18.83055556,-0.385
18.83333333,-0.405
18.83611111,-0.42
18.83888889,-0.45
18.84166667,-0.485
18.84444444,-0.5
18.84722222,-0.495
18.85,-0.47
18.85277778,-0.485
18.85555556,-0.495
18.85833333,-0.52
18.86111111,-0.525
18.86388889,-0.53
18.86666667,-0.52
18.86944444,-0.515
18.87222222,-0.53
18.875,-0.545
18.87777778,-0.56
18.88055556,-0.565
18.88333333,-0.56
18.88611111,-0.555
18.88888889,-0.57
18.89166667,-0.58
18.89444444,-0.585
18.89722222,-0.59
18.9,-0.575
18.90277778,-0.585
18.90555556,-0.6
18.90833333,-0.605
18.91111111,-0.61
18.91388889,-0.595
18.91666667,-0.585
18.91944444,-0.595
18.92222222,-0.625
18.925,-0.63
18.92777778,-0.625
18.93055556,-0.635
18.93333333,-0.63
18.93611111,-0.63
18.93888889,-0.67
18.94166667,-0.675
