0.0,-5890
2.2677836761151352e-05,-6184
4.5355673522302704e-05,-6446
6.803351028345406e-05,-6567
9.071134704460541e-05,-6510
0.00011338918380575676,-6540
0.00013606702056690812,-6442
0.00015874485732805945,-6494
0.00018142269408921081,-6500
0.00020410053085036218,-6463
0.0002267783676115135,-6291
0.00024945620437266485,-5815
0.00027213404113381624,-5404
0.00029481187789496757,-5414
0.0003174897146561189,-5692
0.0003401675514172703,-5970
0.00036284538817842163,-5625
0.00038552322493957296,-5490
0.00040820106170072435,-5278
0.0004308788984618757,-5529
0.000453556735223027,-5707
0.0004762345719841784,-6052
0.0004989124087453297,-6176
0.0005215902455064811,-6137
0.0005442680822676325,-6232
0.0005669459190287838,-6568
0.0005896237557899351,-6918
0.0006123015925510865,-7322
0.0006349794293122378,-7320
0.0006576572660733892,-7342
0.0006803351028345406,-7367
0.0007030129395956919,-7758
0.0007256907763568433,-8520
0.0007483686131179946,-8882
0.0007710464498791459,-9022
0.0007937242866402973,-8863
0.0008164021234014487,-8667
0.0008390799601626,-8858
0.0008617577969237514,-9190
0.0008844356336849028,-9573
0.000907113470446054,-9420
0.0009297913072072054,-9268
0.0009524691439683568,-9050
0.0009751469807295081,-9140
0.0009978248174906594,-9498
0.0010205026542518109,-9914
0.0010431804910129622,-10023
0.0010658583277741134,-9849
0.001088536164535265,-9545
0.0011112140012964162,-9660
0.0011338918380575675,-9764
0.001156569674818719,-9648
0.0011792475115798703,-9520
0.0012019253483410216,-9067
0.001224603185102173,-9032
0.0012472810218633243,-9261
0.0012699588586244756,-9415
0.0012926366953856271,-9382
0.0013153145321467784,-9026
0.0013379923689079297,-8627
0.0013606702056690812,-8322
0.0013833480424302325,-8561
0.0014060258791913837,-8372
0.0014287037159525352,-8758
0.0014513815527136865,-8332
0.0014740593894748378,-7958
0.0014967372262359893,-8041
0.0015194150629971406,-8096
0.0015420928997582919,-8221
0.0015647707365194434,-8216
0.0015874485732805946,-7800
0.001610126410041746,-7704
0.0016328042468028974,-7700
0.0016554820835640487,-7746
0.0016781599203252,-7668
0.0017008377570863515,-7484
0.0017235155938475028,-7355
0.001746193430608654,-6782
0.0017688712673698055,-6708
0.0017915491041309568,-6641
0.001814226940892108,-6754
0.0018369047776532596,-7164
0.0018595826144144109,-7166
0.0018822604511755622,-7268
0.0019049382879367137,-7528
0.001927616124697865,-7918
0.0019502939614590162,-8294
0.0019729717982201675,-8726
0.0019956496349813188,-8531
0.0020183274717424705,-8418
0.0020410053085036218,-8466
0.002063683145264773,-8640
0.0020863609820259243,-8764
0.0021090388187870756,-9100
0.002131716655548227,-8880
0.0021543944923093786,-8926
0.00217707232907053,-8970
0.002199750165831681,-9244
0.0022224280025928324,-9446
0.0022451058393539837,-9584
0.002267783676115135,-9556
0.0022904615128762867,-9241
0.002313139349637438,-8788
0.0023358171863985893,-8634
0.0023584950231597406,-8954
0.002381172859920892,-9118
0.002403850696682043,-9112
0.002426528533443195,-8730
0.002449206370204346,-8798
0.0024718842069654974,-8871
0.0024945620437266487,-9132
0.0025172398804878,-9440
0.0025399177172489512,-9216
0.002562595554010103,-9182
0.0025852733907712542,-9210
0.0026079512275324055,-9324
0.002630629064293557,-9713
0.002653306901054708,-9932
0.0026759847378158594,-9682
0.002698662574577011,-9418
0.0027213404113381624,-9048
0.0027440182480993136,-9128
0.002766696084860465,-9406
0.002789373921621616,-9500
0.0028120517583827675,-9383
0.002834729595143919,-9328
0.0028574074319050705,-9587
0.0028800852686662218,-9818
0.002902763105427373,-10146
0.0029254409421885243,-10069
0.0029481187789496756,-9994
0.002970796615710827,-9746
0.0029934744524719786,-9625
0.00301615228923313,-9905
0.003038830125994281,-9972
0.0030615079627554324,-9974
0.0030841857995165837,-9693
0.003106863636277735,-9487
0.0031295414730388867,-9541
0.003152219309800038,-9756
0.0031748971465611893,-10095
0.0031975749833223406,-10037
0.003220252820083492,-9626
0.003242930656844643,-9321
0.003265608493605795,-8475
0.003288286330366946,-8162
0.0033109641671280974,-7573
0.0033336420038892487,-7252
0.0033563198406504,-6794
0.0033789976774115512,-5930
0.003401675514172703,-4998
0.0034243533509338542,-3588
0.0034470311876950055,-2126
0.003469709024456157,-734
0.003492386861217308,1340
0.0035150646979784594,3526
0.003537742534739611,6066
0.0035604203715007623,8120
0.0035830982082619136,9062
0.003605776045023065,10251
0.003628453881784216,11303
0.0036511317185453675,11317
0.003673809555306519,9591
0.0036964873920676705,6960
0.0037191652288288217,3770
0.003741843065589973,257
0.0037645209023511243,-2370
0.0037871987391122756,-3681
0.0038098765758734273,-4276
0.0038325544126345786,-4743
0.00385523224939573,-4846
0.003877910086156881,-5044
0.0039005879229180324,-4616
0.003923265759679184,-4428
0.003945943596440335,-4302
0.003968621433201486,-4356
0.0039912992699626375,-4584
0.00401397710672379,-4779
0.004036654943484941,-4814
0.004059332780246092,-4679
0.0040820106170072435,-4969
0.004104688453768395,-4948
0.004127366290529546,-4943
0.004150044127290697,-5086
0.004172721964051849,-4660
0.004195399800813,-4758
0.004218077637574151,-4802
0.0042407554743353025,-5220
0.004263433311096454,-5143
0.004286111147857606,-5380
0.004308788984618757,-5173
0.0043314668213799085,-4919
0.00435414465814106,-5067
0.004376822494902211,-5427
0.004399500331663362,-6045
0.004422178168424514,-6397
0.004444856005185665,-6507
0.004467533841946816,-6606
0.0044902116787079675,-6573
0.004512889515469119,-6953
0.00453556735223027,-6980
0.004558245188991421,-7194
0.0045809230257525735,-6996
0.004603600862513725,-6982
0.004626278699274876,-7124
0.004648956536036027,-7353
0.004671634372797179,-7512
0.00469431220955833,-7468
0.004716990046319481,-7208
0.004739667883080632,-6962
0.004762345719841784,-6703
0.004785023556602935,-6934
0.004807701393364086,-7118
0.0048303792301252375,-7365
0.00485305706688639,-7578
0.004875734903647541,-7296
0.004898412740408692,-7445
0.0049210905771698435,-8052
0.004943768413930995,-8421
0.004966446250692146,-8740
0.004989124087453297,-8732
0.005011801924214449,-8611
0.0050344797609756,-8422
0.005057157597736751,-8540
0.0050798354344979025,-8859
0.005102513271259054,-8731
0.005125191108020206,-8727
0.005147868944781357,-8744
0.0051705467815425085,-8612
0.00519322461830366,-8852
0.005215902455064811,-8907
0.005238580291825962,-9336
0.005261258128587114,-9434
0.005283935965348265,-9185
0.005306613802109416,-9016
0.0053292916388705674,-9180
0.005351969475631719,-9064
0.00537464731239287,-9402
0.005397325149154022,-9100
0.0054200029859151734,-8995
0.005442680822676325,-8996
0.005465358659437476,-9062
0.005488036496198627,-9300
0.0055107143329597786,-9349
0.00553339216972093,-9318
0.005556070006482081,-8899
0.005578747843243232,-8900
0.005601425680004384,-8808
0.005624103516765535,-8740
0.005646781353526686,-8548
0.005669459190287838,-8403
0.00569213702704899,-7929
0.005714814863810141,-7382
0.005737492700571292,-7067
0.0057601705373324435,-6490
0.005782848374093595,-6088
0.005805526210854746,-5076
0.005828204047615897,-3766
0.005850881884377049,-2736
0.0058735597211382,-2390
0.005896237557899351,-2185
0.0059189153946605025,-1474
0.005941593231421654,-258
0.005964271068182806,342
0.005986948904943957,-26
0.0060096267417051085,-1166
0.00603230457846626,-2802
0.006054982415227411,-4434
0.006077660251988562,-6216
0.006100338088749714,-7054
0.006123015925510865,-7510
0.006145693762272016,-7847
0.0061683715990331674,-7896
0.006191049435794319,-7723
0.00621372727255547,-6914
0.006236405109316622,-6542
0.006259082946077773,-6555
0.006281760782838925,-6739
0.006304438619600076,-6920
0.006327116456361227,-7432
0.0063497942931223786,-7264
0.00637247212988353,-6960
0.006395149966644681,-7020
0.006417827803405832,-6968
0.006440505640166984,-7018
0.006463183476928135,-7057
0.006485861313689286,-6842
0.006508539150450438,-6838
0.00653121698721159,-7127
0.006553894823972741,-7430
0.006576572660733892,-7756
0.0065992504974950435,-7956
0.006621928334256195,-7741
0.006644606171017346,-7904
0.006667284007778497,-8005
0.006689961844539649,-8326
0.0067126396813008,-8302
0.006735317518061951,-8603
0.0067579953548231025,-8644
0.006780673191584255,-8458
0.006803351028345406,-8184
0.006826028865106557,-8239
0.0068487067018677085,-8415
0.00687138453862886,-8761
0.006894062375390011,-8724
0.006916740212151162,-8798
0.006939418048912314,-8935
0.006962095885673465,-9140
0.006984773722434616,-9152
0.007007451559195767,-9511
0.007030129395956919,-9498
0.007052807232718071,-9452
0.007075485069479222,-9532
0.007098162906240373,-9888
0.007120840743001525,-10416
0.007143518579762676,-10628
0.007166196416523827,-10434
0.0071888742532849785,-10044
0.00721155209004613,-10106
0.007234229926807281,-10288
0.007256907763568432,-10960
0.007279585600329584,-11748
0.007302263437090735,-11898
0.007324941273851886,-11684
0.007347619110613038,-11306
0.00737029694737419,-10966
0.007392974784135341,-11150
0.007415652620896492,-11432
0.0074383304576576435,-12232
0.007461008294418795,-12145
0.007483686131179946,-11829
0.007506363967941097,-11430
0.007529041804702249,-11328
0.0075517196414634,-11306
0.007574397478224551,-11032
0.0075970753149857025,-10917
0.007619753151746855,-10622
0.007642430988508006,-10424
0.007665108825269157,-10842
0.0076877866620303085,-11075
0.00771046449879146,-10688
0.007733142335552611,-10702
0.007755820172313762,-10702
0.007778498009074914,-10880
0.007801175845836065,-10883
0.007823853682597217,-10858
0.007846531519358367,-10667
0.00786920935611952,-10307
0.00789188719288067,-9847
0.007914565029641822,-9538
0.007937242866402973,-9562
0.007959920703164125,-9570
0.007982598539925275,-9306
0.008005276376686427,-8980
0.00802795421344758,-8786
0.00805063205020873,-8922
0.008073309886969882,-8862
0.008095987723731032,-8524
0.008118665560492185,-7910
0.008141343397253335,-7426
0.008164021234014487,-7153
0.008186699070775637,-7446
0.00820937690753679,-7844
0.00823205474429794,-8226
0.008254732581059092,-8144
0.008277410417820243,-7930
0.008300088254581395,-7737
0.008322766091342547,-7644
0.008345443928103697,-7850
0.00836812176486485,-7445
0.008390799601626,-7050
0.008413477438387152,-6727
0.008436155275148302,-6776
0.008458833111909455,-6602
0.008481510948670605,-6444
0.008504188785431757,-6433
0.008526866622192908,-6312
0.00854954445895406,-6700
0.008572222295715212,-6726
0.008594900132476362,-6798
0.008617577969237514,-6643
0.008640255805998665,-6577
0.008662933642759817,-6069
0.008685611479520967,-5606
0.00870828931628212,-5644
0.00873096715304327,-6192
0.008753644989804422,-6406
0.008776322826565573,-6582
0.008799000663326725,-6381
0.008821678500087875,-6086
0.008844356336849027,-5794
0.00886703417361018,-5944
0.00888971201037133,-6404
0.008912389847132482,-7048
0.008935067683893632,-7264
0.008957745520654785,-7300
0.008980423357415935,-7232
0.009003101194177087,-7281
0.009025779030938237,-7417
0.00904845686769939,-7166
0.00907113470446054,-6302
0.009093812541221692,-5485
0.009116490377982843,-4590
0.009139168214743995,-3897
0.009161846051505147,-3705
0.009184523888266297,-3930
0.00920720172502745,-3550
0.0092298795617886,-3086
0.009252557398549752,-1764
0.009275235235310902,-327
0.009297913072072055,856
0.009320590908833205,2579
0.009343268745594357,5058
0.009365946582355508,7058
0.00938862441911666,8608
0.009411302255877812,9861
0.009433980092638962,10314
0.009456657929400114,8792
0.009479335766161265,6249
0.009502013602922417,2630
0.009524691439683567,-1072
0.00954736927644472,-4968
0.00957004711320587,-7946
0.009592724949967022,-10120
0.009615402786728173,-11418
0.009638080623489325,-11756
0.009660758460250475,-11061
0.009683436297011627,-10204
0.00970611413377278,-9957
0.00972879197053393,-9990
0.009751469807295082,-10066
0.009774147644056232,-9825
0.009796825480817384,-9910
0.009819503317578535,-10002
0.009842181154339687,-10252
0.009864858991100837,-10468
0.00988753682786199,-10346
0.00991021466462314,-10030
0.009932892501384292,-9908
0.009955570338145444,-10286
0.009978248174906595,-10688
0.010000926011667747,-10812
0.010023603848428897,-10252
0.01004628168519005,-10195
0.0100689595219512,-10111
0.010091637358712352,-10134
0.010114315195473502,-10364
0.010136993032234655,-10584
0.010159670868995805,-10574
0.010182348705756957,-10443
0.010205026542518108,-10390
0.01022770437927926,-10252
0.010250382216040412,-10014
0.010273060052801562,-9980
0.010295737889562714,-9738
0.010318415726323865,-9354
0.010341093563085017,-9370
0.010363771399846167,-9424
0.01038644923660732,-9234
0.01040912707336847,-8837
0.010431804910129622,-8368
0.010454482746890773,-7976
0.010477160583651925,-7682
0.010499838420413075,-7730
0.010522516257174227,-8076
0.01054519409393538,-7956
0.01056787193069653,-7238
0.010590549767457682,-6955
0.010613227604218832,-6378
0.010635905440979984,-6009
0.010658583277741135,-5964
0.010681261114502287,-5806
0.010703938951263437,-5672
0.01072661678802459,-5459
0.01074929462478574,-5251
0.010771972461546892,-5042
0.010794650298308044,-4820
0.010817328135069195,-4903
0.010840005971830347,-4863
0.010862683808591497,-4712
0.01088536164535265,-4172
0.0109080394821138,-4066
0.010930717318874952,-4070
0.010953395155636102,-4010
0.010976072992397255,-3394
0.010998750829158405,-3048
0.011021428665919557,-2784
0.011044106502680708,-2580
0.01106678433944186,-2600
0.011089462176203012,-2558
0.011112140012964162,-2261
0.011134817849725314,-2112
0.011157495686486465,-1818
0.011180173523247617,-2139
0.011202851360008767,-2660
0.01122552919676992,-3008
0.01124820703353107,-3264
0.011270884870292222,-3148
0.011293562707053372,-3162
0.011316240543814525,-3171
0.011338918380575677,-3304
0.011361596217336827,-3364
0.01138427405409798,-3470
0.01140695189085913,-3528
0.011429629727620282,-3602
0.011452307564381432,-3928
0.011474985401142584,-4471
0.011497663237903735,-5024
0.011520341074664887,-4768
0.011543018911426037,-4909
0.01156569674818719,-5154
0.01158837458494834,-5594
0.011611052421709492,-5872
0.011633730258470644,-6299
0.011656408095231795,-6178
0.011679085931992947,-6310
0.011701763768754097,-6438
0.01172444160551525,-6788
0.0117471194422764,-7401
0.011769797279037552,-7522
0.011792475115798702,-7784
0.011815152952559855,-7578
0.011837830789321005,-7950
0.011860508626082157,-8008
0.011883186462843308,-8322
0.01190586429960446,-8494
0.011928542136365612,-8614
0.011951219973126762,-8702
0.011973897809887914,-8720
0.011996575646649065,-8894
0.012019253483410217,-9060
0.012041931320171367,-9472
0.01206460915693252,-9114
0.01208728699369367,-8782
0.012109964830454822,-8558
0.012132642667215972,-8740
0.012155320503977125,-9104
0.012177998340738277,-9262
0.012200676177499427,-8837
0.01222335401426058,-8206
0.01224603185102173,-8117
0.012268709687782882,-8260
0.012291387524544032,-8648
0.012314065361305184,-8959
0.012336743198066335,-8784
0.012359421034827487,-8611
0.012382098871588637,-8235
0.01240477670834979,-8328
0.01242745454511094,-8278
0.012450132381872092,-8158
0.012472810218633244,-7959
0.012495488055394395,-7650
0.012518165892155547,-7634
0.012540843728916697,-7390
0.01256352156567785,-7866
0.012586199402439,-7602
0.012608877239200152,-7279
0.012631555075961302,-6848
0.012654232912722455,-6752
0.012676910749483605,-6875
0.012699588586244757,-7026
0.01272226642300591,-6953
0.01274494425976706,-6492
0.012767622096528212,-6158
0.012790299933289362,-5937
0.012812977770050514,-6110
0.012835655606811665,-6222
0.012858333443572817,-6136
0.012881011280333967,-5758
0.01290368911709512,-5428
0.01292636695385627,-5274
0.012949044790617422,-5588
0.012971722627378572,-5802
0.012994400464139725,-6068
0.013017078300900877,-5692
0.013039756137662027,-5377
0.01306243397442318,-5239
0.01308511181118433,-5270
0.013107789647945482,-5428
0.013130467484706632,-5170
0.013153145321467784,-4514
0.013175823158228935,-4012
0.013198500994990087,-3398
0.013221178831751237,-2887
0.01324385666851239,-2194
0.01326653450527354,-1937
0.013289212342034692,-1802
0.013311890178795844,-1804
0.013334568015556995,-2404
0.013357245852318147,-2910
0.013379923689079297,-3232
0.01340260152584045,-3626
0.0134252793626016,-3721
0.013447957199362752,-3476
0.013470635036123902,-3456
0.013493312872885055,-3762
0.013515990709646205,-4468
0.013538668546407357,-4819
0.01356134638316851,-5014
0.01358402421992966,-4571
0.013606702056690812,-4435
0.013629379893451962,-4790
0.013652057730213114,-4960
0.013674735566974265,-5496
0.013697413403735417,-5577
0.013720091240496567,-5040
0.01374276907725772,-5242
0.01376544691401887,-5661
0.013788124750780022,-5882
0.013810802587541172,-6117
0.013833480424302325,-5950
0.013856158261063477,-5950
0.013878836097824627,-6021
0.01390151393458578,-6302
0.01392419177134693,-6715
0.013946869608108082,-7156
0.013969547444869232,-7098
0.013992225281630384,-6794
0.014014903118391535,-6744
0.014037580955152687,-7018
0.014060258791913837,-7396
0.01408293662867499,-7790
0.014105614465436142,-7724
0.014128292302197292,-7592
0.014150970138958444,-7482
0.014173647975719595,-7806
0.014196325812480747,-8027
0.014219003649241897,-8160
0.01424168148600305,-8086
0.0142643593227642,-7882
0.014287037159525352,-7968
0.014309714996286502,-8004
0.014332392833047655,-8252
0.014355070669808805,-8378
0.014377748506569957,-8082
0.01440042634333111,-7722
0.01442310418009226,-7466
0.014445782016853412,-7304
0.014468459853614562,-7748
0.014491137690375714,-8056
0.014513815527136865,-7642
0.014536493363898017,-7412
0.014559171200659167,-7440
0.01458184903742032,-7688
0.01460452687418147,-7787
0.014627204710942622,-7892
0.014649882547703772,-7644
0.014672560384464925,-7734
0.014695238221226077,-7822
0.014717916057987227,-7820
0.01474059389474838,-7950
0.01476327173150953,-8230
0.014785949568270682,-7912
0.014808627405031832,-7562
0.014831305241792984,-7462
0.014853983078554135,-7594
0.014876660915315287,-7772
0.014899338752076437,-7796
0.01492201658883759,-7548
0.014944694425598742,-7010
0.014967372262359892,-7036
0.014990050099121044,-7076
0.015012727935882195,-7210
0.015035405772643347,-7300
0.015058083609404497,-6806
0.01508076144616565,-6836
0.0151034392829268,-6268
0.015126117119687952,-6184
0.015148794956449102,-6136
0.015171472793210255,-6148
0.015194150629971405,-5788
0.015216828466732557,-5099
0.01523950630349371,-4980
0.01526218414025486,-4520
0.015284861977016012,-4213
0.015307539813777162,-3744
0.015330217650538314,-2862
0.015352895487299465,-1830
0.015375573324060617,-558
0.015398251160821767,1057
0.01542092899758292,2729
0.01544360683434407,4620
0.015466284671105222,7301
0.015488962507866374,9442
0.015511640344627525,11214
0.015534318181388677,12748
0.015556996018149827,14356
0.01557967385491098,15268
0.01560235169167213,15453
0.015625029528433282,14280
0.015647707365194434,11981
0.015670385201955583,9354
0.015693063038716735,6592
0.015715740875477887,4342
0.01573841871223904,3329
0.01576109654900019,2954
0.01578377438576134,3191
0.015806452222522492,3493
0.015829130059283644,4214
0.015851807896044796,5278
0.015874485732805945,6416
0.015897163569567097,6396
0.01591984140632825,5156
0.0159425192430894,2786
0.01596519707985055,242
0.015987874916611702,-2368
0.016010552753372854,-4452
0.016033230590134007,-5760
0.01605590842689516,-6852
0.016078586263656307,-7816
0.01610126410041746,-8651
0.016123941937178612,-8614
0.016146619773939764,-8019
0.016169297610700913,-7679
0.016191975447462065,-7924
0.016214653284223217,-8224
0.01623733112098437,-8467
0.016260008957745518,-8864
0.01628268679450667,-8818
0.016305364631267822,-8548
0.016328042468028974,-8245
0.016350720304790126,-8202
0.016373398141551275,-8352
0.016396075978312427,-8692
0.01641875381507358,-8705
0.01644143165183473,-8298
0.01646410948859588,-8312
0.016486787325357032,-8781
0.016509465162118184,-8924
0.016532142998879337,-9004
0.016554820835640485,-8667
0.016577498672401637,-8444
0.01660017650916279,-8746
0.01662285434592394,-8998
0.016645532182685094,-9294
0.016668210019446243,-9272
0.016690887856207395,-9010
0.016713565692968547,-8537
0.0167362435297297,-8014
0.016758921366490848,-7888
0.016781599203252,-7878
0.016804277040013152,-7882
0.016826954876774304,-7390
0.016849632713535453,-7227
0.016872310550296605,-7124
0.016894988387057757,-7400
0.01691766622381891,-7460
0.01694034406058006,-7627
0.01696302189734121,-7144
0.016985699734102362,-6432
0.017008377570863514,-6477
0.017031055407624666,-6536
0.017053733244385815,-6928
0.017076411081146967,-6991
0.01709908891790812,-6563
0.01712176675466927,-5987
0.017144444591430424,-6007
0.017167122428191572,-5946
0.017189800264952725,-6249
0.017212478101713877,-6076
0.01723515593847503,-5815
0.017257833775236178,-5066
0.01728051161199733,-4740
0.017303189448758482,-4734
0.017325867285519634,-4640
0.017348545122280783,-4338
0.017371222959041935,-3715
0.017393900795803087,-3084
0.01741657863256424,-2710
0.01743925646932539,-2540
0.01746193430608654,-2410
0.017484612142847692,-2107
0.017507289979608844,-1690
0.017529967816369996,-1472
0.017552645653131145,-1113
0.017575323489892297,-880
0.01759800132665345,-674
0.0176206791634146,-648
0.01764335700017575,-185
0.017666034836936902,-162
0.017688712673698054,-75
0.017711390510459207,-80
0.01773406834722036,-178
0.017756746183981507,-209
0.01777942402074266,28
0.017802101857503812,520
0.017824779694264964,520
0.017847457531026113,324
0.017870135367787265,-188
0.017892813204548417,-57
0.01791549104130957,178
0.017938168878070718,581
0.01796084671483187,790
0.017983524551593022,662
0.018006202388354174,437
0.018028880225115326,506
0.018051558061876475,1004
0.018074235898637627,1553
0.01809691373539878,1472
0.01811959157215993,1447
0.01814226940892108,1420
0.018164947245682232,1376
0.018187625082443384,1354
0.018210302919204537,1462
0.018232980755965685,1190
0.018255658592726837,666
0.01827833642948799,56
0.01830101426624914,-201
0.018323692103010294,-370
0.018346369939771442,-552
0.018369047776532595,-954
0.018391725613293747,-1332
0.0184144034500549,-1850
0.018437081286816048,-2082
0.0184597591235772,-2564
0.018482436960338352,-3124
0.018505114797099504,-3888
0.018527792633860656,-4662
0.018550470470621805,-5571
0.018573148307382957,-6488
0.01859582614414411,-6780
0.01861850398090526,-7054
0.01864118181766641,-7354
0.018663859654427562,-7742
0.018686537491188714,-8050
0.018709215327949866,-8038
0.018731893164711015,-8286
0.018754571001472167,-8276
0.01877724883823332,-8426
0.01879992667499447,-8416
0.018822604511755624,-8660
0.018845282348516772,-8692
0.018867960185277925,-8438
0.018890638022039077,-8382
0.01891331585880023,-8502
0.018935993695561378,-8684
0.01895867153232253,-8962
0.018981349369083682,-9300
0.019004027205844834,-9038
0.019026705042605983,-8932
0.019049382879367135,-8926
0.019072060716128287,-8938
0.01909473855288944,-8948
0.01911741638965059,-9096
0.01914009422641174,-8764
0.019162772063172892,-8444
0.019185449899934044,-8446
0.019208127736695196,-8623
0.019230805573456345,-8997
0.019253483410217497,-8964
0.01927616124697865,-8446
0.0192988390837398,-8022
0.01932151692050095,-7554
0.019344194757262102,-7648
0.019366872594023254,-7484
0.019389550430784407,-7354
0.01941222826754556,-7240
0.019434906104306707,-7034
0.01945758394106786,-7100
0.01948026177782901,-7346
0.019502939614590164,-7544
0.019525617451351313,-7682
0.019548295288112465,-7177
0.019570973124873617,-6837
0.01959365096163477,-6618
0.019616328798395918,-6592
0.01963900663515707,-6250
0.019661684471918222,-6574
0.019684362308679374,-6188
0.019707040145440526,-6126
0.019729717982201675,-6142
0.019752395818962827,-6260
0.01977507365572398,-6064
0.01979775149248513,-6006
0.01982042932924628,-5716
0.019843107166007432,-5304
0.019865785002768584,-5231
0.019888462839529737,-5267
0.01991114067629089,-5146
0.019933818513052037,-5033
0.01995649634981319,-4862
0.01997917418657434,-4568
0.020001852023335494,-4677
0.020024529860096642,-4792
0.020047207696857795,-4834
0.020069885533618947,-4572
0.0200925633703801,-4066
0.020115241207141248,-3690
0.0201379190439024,-3273
0.020160596880663552,-2915
0.020183274717424704,-2681
0.020205952554185856,-2300
0.020228630390947005,-1706
0.020251308227708157,-1305
0.02027398606446931,-653
0.02029666390123046,105
0.02031934173799161,1164
0.020342019574752762,2681
0.020364697411513914,4666
0.020387375248275066,6394
0.020410053085036215,8189
0.020432730921797367,10316
0.02045540875855852,11980
0.02047808659531967,13338
0.020500764432080824,14744
0.020523442268841972,15794
0.020546120105603125,15670
0.020568797942364277,14281
0.02059147577912543,12416
0.020614153615886577,10096
0.02063683145264773,7252
0.020659509289408882,4094
0.020682187126170034,1504
0.020704864962931183,-490
0.020727542799692335,-1562
0.020750220636453487,-2232
0.02077289847321464,-2306
0.02079557630997579,-2322
0.02081825414673694,-2566
0.020840931983498092,-2899
0.020863609820259244,-3464
0.020886287657020396,-3980
0.020908965493781545,-4642
0.020931643330542697,-5098
0.02095432116730385,-5607
0.020976999004065,-6669
0.02099967684082615,-7900
0.021022354677587302,-8590
0.021045032514348454,-8930
0.021067710351109607,-9054
0.02109038818787076,-9493
0.021113066024631907,-9966
0.02113574386139306,-10376
0.02115842169815421,-10546
0.021181099534915364,-10414
0.021203777371676513,-10362
0.021226455208437665,-10609
0.021249133045198817,-10843
0.02127181088195997,-11238
0.02129448871872112,-11423
0.02131716655548227,-11350
0.021339844392243422,-11049
0.021362522229004574,-11069
0.021385200065765726,-11276
0.021407877902526875,-11431
0.021430555739288027,-11228
0.02145323357604918,-10801
0.02147591141281033,-10826
0.02149858924957148,-10714
0.021521267086332632,-10980
0.021543944923093784,-11194
0.021566622759854936,-11532
0.02158930059661609,-11297
0.021611978433377237,-11074
0.02163465627013839,-11172
0.02165733410689954,-11453
0.021680011943660694,-11510
0.021702689780421842,-11130
0.021725367617182995,-10260
0.021748045453944147,-9726
0.0217707232907053,-9260
0.021793401127466448,-9156
0.0218160789642276,-8954
0.021838756800988752,-8614
0.021861434637749904,-7932
0.021884112474511056,-7354
0.021906790311272205,-7242
0.021929468148033357,-7316
0.02195214598479451,-7394
0.02197482382155566,-7510
0.02199750165831681,-7120
0.022020179495077962,-6460
0.022042857331839114,-6468
0.022065535168600266,-6286
0.022088213005361415,-6034
0.022110890842122567,-5893
0.02213356867888372,-5582
0.02215624651564487,-5312
0.022178924352406024,-4865
0.022201602189167172,-4766
0.022224280025928324,-4522
0.022246957862689477,-4256
0.02226963569945063,-4027
0.022292313536211777,-3620
0.02231499137297293,-3516
0.022337669209734082,-3592
0.022360347046495234,-3627
0.022383024883256383,-3541
0.022405702720017535,-3159
0.022428380556778687,-2978
0.02245105839353984,-2654
0.02247373623030099,-2847
0.02249641406706214,-2688
0.022519091903823292,-2790
0.022541769740584444,-2432
0.022564447577345596,-2048
0.022587125414106745,-2054
0.022609803250867897,-2060
0.02263248108762905,-2062
0.0226551589243902,-2062
0.022677836761151354,-1786
0.022700514597912502,-1736
0.022723192434673654,-1919
0.022745870271434807,-1959
0.02276854810819596,-2298
0.022791225944957107,-2354
0.02281390378171826,-2148
0.02283658161847941,-1944
0.022859259455240564,-2012
0.022881937292001713,-2075
0.022904615128762865,-2274
0.022927292965524017,-2412
0.02294997080228517,-2640
0.02297264863904632,-2932
0.02299532647580747,-3054
0.023018004312568622,-3858
0.023040682149329774,-4362
0.023063359986090926,-4512
0.023086037822852075,-4312
0.023108715659613227,-4408
0.02313139349637438,-4201
0.02315407133313553,-4652
0.02317674916989668,-4582
0.023199427006657832,-4268
0.023222104843418984,-4002
0.023244782680180136,-3846
0.02326746051694129,-3703
0.023290138353702437,-3832
0.02331281619046359,-4248
0.02333549402722474,-4272
0.023358171863985894,-4319
0.023380849700747042,-4294
0.023403527537508195,-4413
0.023426205374269347,-4744
0.0234488832110305,-4900
0.023471561047791648,-4881
0.0234942388845528,-5054
0.023516916721313952,-5201
0.023539594558075104,-5360
0.023562272394836256,-5649
0.023584950231597405,-5766
0.023607628068358557,-5534
0.02363030590511971,-5610
0.02365298374188086,-5340
0.02367566157864201,-5631
0.023698339415403162,-6024
0.023721017252164314,-6557
0.023743695088925466,-7138
0.023766372925686615,-7427
0.023789050762447767,-7839
0.02381172859920892,-8448
0.02383440643597007,-8925
0.023857084272731224,-9357
0.023879762109492372,-9496
0.023902439946253524,-9610
0.023925117783014677,-9814
0.02394779561977583,-10092
0.023970473456536977,-10669
0.02399315129329813,-10668
0.024015829130059282,-10786
0.024038506966820434,-10563
0.024061184803581586,-10620
0.024083862640342735,-10722
0.024106540477103887,-11104
0.02412921831386504,-11352
0.02415189615062619,-11207
0.02417457398738734,-11028
0.024197251824148492,-10942
0.024219929660909644,-11118
0.024242607497670796,-11294
0.024265285334431945,-11316
0.024287963171193097,-11196
0.02431064100795425,-10904
0.0243333188447154,-11009
0.024355996681476554,-10962
0.024378674518237702,-11027
0.024401352354998854,-11056
0.024424030191760007,-10612
0.02444670802852116,-10320
0.024469385865282307,-9914
0.02449206370204346,-9551
0.02451474153880461,-9567
0.024537419375565764,-9122
0.024560097212326912,-8534
0.024582775049088065,-7679
0.024605452885849217,-7164
0.02462813072261037,-6798
0.02465080855937152,-6628
0.02467348639613267,-6611
0.024696164232893822,-6420
0.024718842069654974,-6147
0.024741519906416126,-5882
0.024764197743177275,-5866
0.024786875579938427,-5958
0.02480955341669958,-5908
0.02483223125346073,-5684
0.02485490909022188,-5432
0.024877586926983032,-4976
0.024900264763744184,-4952
0.024922942600505336,-4866
0.02494562043726649,-4700
0.024968298274027637,-4384
0.02499097611078879,-4054
0.02501365394754994,-3932
0.025036331784311094,-3564
0.025059009621072242,-3564
0.025081687457833395,-2888
0.025104365294594547,-2016
0.0251270431313557,-680
0.025149720968116848,352
0.025172398804878,1384
0.025195076641639152,2298
0.025217754478400304,3230
0.025240432315161456,4030
0.025263110151922605,5222
0.025285787988683757,5798
0.02530846582544491,5474
0.02533114366220606,4288
0.02535382149896721,2622
0.025376499335728362,746
0.025399177172489514,-1112
0.025421855009250666,-2627
0.02544453284601182,-3842
0.025467210682772967,-4908
0.02548988851953412,-5322
0.02551256635629527,-5360
0.025535244193056424,-4818
0.025557922029817572,-4684
0.025580599866578724,-4766
0.025603277703339877,-5142
0.02562595554010103,-5624
0.025648633376862177,-5724
0.02567131121362333,-5622
0.02569398905038448,-5644
0.025716666887145634,-6082
0.025739344723906786,-6282
0.025762022560667935,-6450
0.025784700397429087,-6539
0.02580737823419024,-6336
0.02583005607095139,-6174
0.02585273390771254,-6298
0.025875411744473692,-6290
0.025898089581234844,-6258
0.025920767417995996,-6058
0.025943445254757145,-5983
0.025966123091518297,-6080
0.02598880092827945,-6452
0.0260114787650406,-6664
0.026034156601801754,-6892
0.026056834438562902,-7082
0.026079512275324054,-6932
0.026102190112085207,-6900
0.02612486794884636,-7084
0.026147545785607507,-7362
0.02617022362236866,-7760
0.02619290145912981,-7572
0.026215579295890964,-7456
0.026238257132652112,-7414
0.026260934969413265,-7484
0.026283612806174417,-8134
0.02630629064293557,-8005
0.02632896847969672,-7840
0.02635164631645787,-7680
0.026374324153219022,-7674
0.026397001989980174,-7734
0.026419679826741326,-7584
0.026442357663502475,-7752
0.026465035500263627,-7394
0.02648771333702478,-7239
0.02651039117378593,-7330
0.02653306901054708,-7290
0.026555746847308232,-7416
0.026578424684069384,-7580
0.026601102520830536,-7221
0.02662378035759169,-6991
0.026646458194352837,-7192
0.02666913603111399,-7100
0.02669181386787514,-7460
0.026714491704636294,-7547
0.026737169541397442,-7118
0.026759847378158595,-5989
0.026782525214919747,-4315
0.0268052030516809,-2710
0.02682788088844205,-1258
0.0268505587252032,681
0.026873236561964352,3032
0.026895914398725504,5154
0.026918592235486656,6947
0.026941270072247805,8694
0.026963947909008957,9842
0.02698662574577011,10287
0.02700930358253126,9116
0.02703198141929241,6898
0.027054659256053562,3708
0.027077337092814714,264
0.027100014929575866,-2623
0.02712269276633702,-4605
0.027145370603098167,-5781
0.02716804843985932,-6616
0.02719072627662047,-7374
0.027213404113381624,-7604
0.027236081950142772,-7362
0.027258759786903924,-6838
0.027281437623665077,-6119
0.02730411546042623,-5618
0.027326793297187377,-5383
0.02734947113394853,-5350
0.02737214897070968,-5458
0.027394826807470834,-5444
0.027417504644231986,-5134
0.027440182480993135,-4603
0.027462860317754287,-4392
0.02748553815451544,-4056
0.02750821599127659,-3612
0.02753089382803774,-3437
0.027553571664798892,-3109
0.027576249501560044,-2803
0.027598927338321196,-2843
0.027621605175082345,-3192
0.027644283011843497,-3820
0.02766696084860465,-4216
0.0276896386853658,-4298
0.027712316522126954,-4138
0.027734994358888102,-4074
0.027757672195649254,-4400
0.027780350032410406,-4510
0.02780302786917156,-4652
0.027825705705932707,-4602
0.02784838354269386,-4965
0.02787106137945501,-4988
0.027893739216216164,-5170
0.027916417052977312,-5640
0.027939094889738465,-6034
0.027961772726499617,-6075
0.02798445056326077,-6049
0.02800712840002192,-6143
0.02802980623678307,-6120
0.028052484073544222,-6323
0.028075161910305374,-6574
0.028097839747066526,-6522
0.028120517583827675,-6282
0.028143195420588827,-6407
0.02816587325734998,-6715
0.02818855109411113,-6902
0.028211228930872283,-7028
0.028233906767633432,-6968
0.028256584604394584,-6961
0.028279262441155736,-6837
0.02830194027791689,-6940
0.028324618114678037,-7174
0.02834729595143919,-7219
0.02836997378820034,-6961
0.028392651624961494,-6586
0.028415329461722642,-6398
0.028438007298483794,-6556
0.028460685135244947,-6417
0.0284833629720061,-6732
0.02850604080876725,-6221
0.0285287186455284,-6207
0.028551396482289552,-6108
0.028574074319050704,-6094
0.028596752155811856,-6077
0.028619429992573005,-6081
0.028642107829334157,-6168
0.02866478566609531,-5957
0.02868746350285646,-5904
0.02871014133961761,-6052
0.028732819176378762,-5976
0.028755497013139914,-5926
0.028778174849901066,-5927
0.02880085268666222,-5885
0.028823530523423367,-5961
0.02884620836018452,-6024
0.02886888619694567,-6004
0.028891564033706824,-5658
0.028914241870467972,-5352
0.028936919707229124,-5102
0.028959597543990277,-4976
0.02898227538075143,-4864
0.029004953217512577,-5036
0.02902763105427373,-5324
0.02905030889103488,-5033
0.029072986727796034,-4856
0.029095664564557186,-4859
0.029118342401318335,-4946
0.029141020238079487,-4866
0.02916369807484064,-4943
0.02918637591160179,-5064
0.02920905374836294,-4760
0.029231731585124092,-4925
0.029254409421885244,-5130
0.029277087258646396,-5602
0.029299765095407545,-5924
0.029322442932168697,-6020
0.02934512076892985,-6249
0.029367798605691,-6716
0.029390476442452153,-7052
0.029413154279213302,-7511
0.029435832115974454,-7876
0.029458509952735606,-8140
0.02948118778949676,-8266
0.029503865626257907,-8236
0.02952654346301906,-8460
0.02954922129978021,-8806
0.029571899136541364,-9044
0.029594576973302516,-9126
0.029617254810063665,-8716
0.029639932646824817,-8802
0.02966261048358597,-8726
0.02968528832034712,-8686
0.02970796615710827,-8592
0.029730643993869422,-8118
0.029753321830630574,-7915
0.029775999667391726,-7622
0.029798677504152875,-7640
0.029821355340914027,-8050
0.02984403317767518,-8358
0.02986671101443633,-7975
0.029889388851197483,-7676
0.029912066687958632,-7454
0.029934744524719784,-7572
0.029957422361480936,-7908
0.02998010019824209,-7952
0.030002778035003237,-7633
0.03002545587176439,-7098
0.03004813370852554,-6948
0.030070811545286694,-6951
0.030093489382047842,-7430
0.030116167218808994,-7405
0.030138845055570147,-7048
0.0301615228923313,-6982
0.03018420072909245,-6991
0.0302068785658536,-7052
0.030229556402614752,-7238
0.030252234239375904,-7235
0.030274912076137056,-7202
0.030297589912898205,-7220
0.030320267749659357,-7326
0.03034294558642051,-7666
0.03036562342318166,-7991
0.03038830125994281,-8082
0.030410979096703962,-7937
0.030433656933465114,-7456
0.030456334770226266,-7318
0.03047901260698742,-7430
0.030501690443748567,-7572
0.03052436828050972,-7820
0.03054704611727087,-7676
0.030569723954032024,-7540
0.030592401790793172,-7441
0.030615079627554324,-7639
0.030637757464315477,-7946
0.03066043530107663,-8248
0.030683113137837777,-8182
0.03070579097459893,-8120
0.03072846881136008,-8193
0.030751146648121234,-8305
0.030773824484882386,-8803
0.030796502321643535,-8930
0.030819180158404687,-8760
0.03084185799516584,-8302
0.03086453583192699,-8092
0.03088721366868814,-7840
0.030909891505449292,-7965
0.030932569342210444,-8022
0.030955247178971596,-8064
0.03097792501573275,-7943
0.031000602852493897,-7843
0.03102328068925505,-7708
0.0310459585260162,-7794
0.031068636362777353,-7976
0.031091314199538502,-7742
0.031113992036299654,-7516
0.031136669873060806,-7292
0.03115934770982196,-7003
0.031182025546583107,-6960
0.03120470338334426,-7275
0.03122738122010541,-6772
0.031250059056866564,-6616
0.031272736893627716,-6481
0.03129541473038887,-6510
0.03131809256715002,-6568
0.031340770403911165,-6601
0.03136344824067232,-6566
0.03138612607743347,-6360
0.03140880391419462,-5946
0.031431481750955774,-5994
0.031454159587716926,-6026
0.03147683742447808,-6348
0.03149951526123923,-5945
0.03152219309800038,-5746
0.03154487093476153,-5660
0.03156754877152268,-5600
0.03159022660828383,-5850
0.031612904445044984,-6140
0.031635582281806136,-6228
0.03165826011856729,-5970
0.03168093795532844,-6028
0.03170361579208959,-6060
0.03172629362885074,-6361
0.03174897146561189,-6194
0.03177164930237304,-5969
0.031794327139134194,-5768
0.03181700497589535,-5810
0.0318396828126565,-6105
0.03186236064941765,-6495
0.0318850384861788,-6794
0.031907716322939955,-6614
0.0319303941597011,-6694
0.03195307199646225,-6616
0.031975749833223405,-6347
0.03199842766998456,-6524
0.03202110550674571,-6033
0.03204378334350686,-5086
0.03206646118026801,-3457
0.032089139017029165,-1960
0.03211181685379032,-781
0.03213449469055146,406
0.032157172527312615,1882
0.03217985036407377,3938
0.03220252820083492,5390
0.03222520603759607,6653
0.032247883874357224,7902
0.032270561711118376,8362
0.03229323954787953,7868
0.03231591738464067,6156
0.032338595221401825,4272
0.03236127305816298,1554
0.03238395089492413,-1636
0.03240662873168528,-4288
0.032429306568446434,-5990
0.032451984405207586,-6872
0.03247466224196874,-7435
0.03249734007872989,-7658
0.032520017915491035,-7528
0.03254269575225219,-7656
0.03256537358901334,-7654
0.03258805142577449,-7580
0.032610729262535644,-7606
0.032633407099296796,-7858
0.03265608493605795,-7926
0.0326787627728191,-8258
0.03270144060958025,-8486
0.0327241184463414,-8692
0.03274679628310255,-8046
0.0327694741198637,-8134
0.032792151956624854,-7916
0.032814829793386006,-8024
0.03283750763014716,-8060
0.03286018546690831,-8083
0.03288286330366946,-7564
0.032905541140430615,-7634
0.03292821897719176,-7352
0.03295089681395291,-7546
0.032973574650714065,-7554
0.03299625248747522,-7576
0.03301893032423637,-7388
0.03304160816099752,-7320
0.03306428599775867,-7421
0.033086963834519825,-7460
0.03310964167128097,-7617
0.03313231950804212,-7443
0.033154997344803275,-7303
0.03317767518156443,-7170
0.03320035301832558,-7268
0.03322303085508673,-7408
0.03324570869184788,-7474
0.033268386528609036,-7414
0.03329106436537019,-7406
0.03331374220213133,-7380
0.033336420038892485,-7580
0.03335909787565364,-7790
0.03338177571241479,-7884
0.03340445354917594,-7600
0.033427131385937094,-7088
0.033449809222698246,-7014
0.0334724870594594,-6998
0.03349516489622055,-6876
0.033517842732981695,-6882
0.03354052056974285,-6640
0.033563198406504,-6348
0.03358587624326515,-5872
0.033608554080026304,-5987
0.033631231916787456,-6053
0.03365390975354861,-5985
0.03367658759030976,-5606
0.033699265427070905,-5089
0.03372194326383206,-4607
0.03374462110059321,-4586
0.03376729893735436,-4753
0.033789976774115514,-4568
0.033812654610876666,-4388
0.03383533244763782,-4140
0.03385801028439897,-4007
0.03388068812116012,-3656
0.03390336595792127,-3739
0.03392604379468242,-3838
0.03394872163144357,-3848
0.033971399468204724,-3428
0.033994077304965876,-3384
0.03401675514172703,-3652
0.03403943297848818,-3924
0.03406211081524933,-4082
0.034084788652010485,-3820
0.03410746648877163,-3282
0.03413014432553278,-3046
0.034152822162293935,-3128
0.03417549999905509,-3278
0.03419817783581624,-3500
0.03422085567257739,-3210
0.03424353350933854,-3081
0.034266211346099695,-3024
0.03428888918286085,-3337
0.03431156701962199,-3602
0.034334244856383145,-3972
0.0343569226931443,-4110
0.03437960052990545,-3983
0.0344022783666666,-3232
0.03442495620342775,-2704
0.034447634040188906,-2178
0.03447031187695006,-1580
0.0344929897137112,-698
0.034515667550472355,372
0.03453834538723351,1121
0.03456102322399466,1800
0.03458370106075581,2122
0.034606378897516964,2134
0.034629056734278116,1298
0.03465173457103927,94
0.03467441240780042,-1768
0.034697090244561565,-3728
0.03471976808132272,-5612
0.03474244591808387,-6872
0.03476512375484502,-7851
0.034787801591606174,-8489
0.034810479428367326,-9254
0.03483315726512848,-9428
0.03485583510188963,-9672
0.03487851293865078,-9806
0.03490119077541193,-10190
0.03492386861217308,-10214
0.03494654644893423,-10496
0.034969224285695384,-10652
0.034991902122456536,-10899
0.03501457995921769,-11062
0.03503725779597884,-10745
0.03505993563273999,-10600
0.03508261346950114,-10392
0.03510529130626229,-10399
0.03512796914302344,-10648
0.035150646979784594,-10422
0.03517332481654575,-10090
0.0351960026533069,-9726
0.03521868049006805,-9532
0.0352413583268292,-9576
0.035264036163590355,-9684
0.0352867140003515,-9568
0.03530939183711265,-9349
0.035332069673873805,-9192
0.03535474751063496,-9150
0.03537742534739611,-9210
0.03540010318415726,-9481
0.03542278102091841,-9348
0.035445458857679565,-9199
0.03546813669444072,-9036
0.03549081453120186,-9022
0.035513492367963015,-8798
0.03553617020472417,-8669
0.03555884804148532,-8904
0.03558152587824647,-8740
0.035604203715007623,-8136
0.035626881551768776,-8068
0.03564955938852993,-7895
0.03567223722529108,-7842
0.035694915062052225,-7768
0.03571759289881338,-7484
0.03574027073557453,-7322
0.03576294857233568,-7131
0.035785626409096834,-6998
0.035808304245857986,-7022
0.03583098208261914,-7178
0.03585365991938029,-6882
0.035876337756141435,-6550
0.03589901559290259,-6352
0.03592169342966374,-6302
0.03594437126642489,-6361
0.035967049103186044,-6550
0.035989726939947196,-6326
0.03601240477670835,-5942
0.0360350826134695,-5962
0.03605776045023065,-5882
0.0360804382869918,-6094
0.03610311612375295,-6310
0.0361257939605141,-6014
0.036148471797275254,-5866
0.036171149634036406,-5716
0.03619382747079756,-5759
0.03621650530755871,-5824
0.03623918314431986,-5770
0.036261860981081015,-5525
0.03628453881784216,-5126
0.03630721665460331,-4694
0.036329894491364464,-4876
0.03635257232812562,-4576
0.03637525016488677,-4638
0.03639792800164792,-4477
0.03642060583840907,-3828
0.036443283675170225,-3272
0.03646596151193137,-2655
0.03648863934869252,-2270
0.036511317185453675,-1797
0.03653399502221483,-902
0.03655667285897598,380
0.03657935069573713,1808
0.03660202853249828,2918
0.036624706369259435,4234
0.03664738420602059,5594
0.03667006204278173,7343
0.036692739879542885,8984
0.03671541771630404,10237
0.03673809555306519,11176
0.03676077338982634,11960
0.036783451226587494,11956
0.036806129063348646,11449
0.0368288069001098,10196
0.03685148473687095,8326
0.036874162573632095,5481
0.03689684041039325,2199
0.0369195182471544,-409
0.03694219608391555,-1677
0.036964873920676704,-2176
0.036987551757437856,-2892
0.03701022959419901,-3460
0.03703290743096016,-3822
0.03705558526772131,-4138
0.03707826310448246,-4368
0.03710094094124361,-4722
0.03712361877800476,-5194
0.037146296614765914,-5892
0.037168974451527066,-6324
0.03719165228828822,-6930
0.03721433012504937,-7122
0.03723700796181052,-7328
0.03725968579857167,-7364
0.03728236363533282,-7686
0.03730504147209397,-8108
0.037327719308855124,-8334
0.037350397145616276,-8582
0.03737307498237743,-8482
0.03739575281913858,-8636
0.03741843065589973,-8992
0.037441108492660885,-9111
0.03746378632942203,-9208
0.03748646416618318,-9054
0.037509142002944335,-8903
0.03753181983970549,-9183
0.03755449767646664,-9180
0.03757717551322779,-9692
0.03759985334998894,-9644
0.037622531186750095,-9663
0.03764520902351125,-9586
0.03766788686027239,-9438
0.037690564697033545,-9726
0.0377132425337947,-9910
0.03773592037055585,-9771
0.037758598207317,-9716
0.03778127604407815,-9154
0.037803953880839306,-8945
0.03782663171760046,-9058
0.0378493095543616,-9153
0.037871987391122755,-9348
0.03789466522788391,-9056
0.03791734306464506,-8736
0.03794002090140621,-8830
0.037962698738167364,-8686
0.037985376574928516,-8540
0.03800805441168967,-8278
0.03803073224845082,-7760
0.038053410085211965,-7120
0.03807608792197312,-6907
0.03809876575873427,-7155
0.03812144359549542,-7312
0.038144121432256574,-7108
0.038166799269017726,-6738
0.03818947710577888,-6653
0.03821215494254003,-6486
0.03823483277930118,-6668
0.03825751061606233,-6692
0.03828018845282348,-6493
0.03830286628958463,-6277
0.038325544126345784,-6040
0.038348221963106936,-5940
0.03837089979986809,-6014
0.03839357763662924,-5960
0.03841625547339039,-6019
0.038438933310151545,-5800
0.03846161114691269,-5304
0.03848428898367384,-5320
0.038506966820434994,-5048
0.038529644657196147,-5064
0.0385523224939573,-4898
0.03857500033071845,-4558
0.0385976781674796,-4587
0.038620356004240755,-4881
0.0386430338410019,-4974
0.03866571167776305,-5112
0.038688389514524205,-5306
0.03871106735128536,-4903
0.03873374518804651,-4766
0.03875642302480766,-4874
0.03877910086156881,-5170
0.038801778698329965,-5396
0.03882445653509112,-5608
0.03884713437185226,-5655
0.038869812208613415,-5780
0.03889249004537457,-5995
0.03891516788213572,-6536
0.03893784571889687,-6782
0.03896052355565802,-7110
0.038983201392419176,-6958
0.03900587922918033,-6860
0.03902855706594148,-6991
0.039051234902702625,-7456
0.03907391273946378,-7734
0.03909659057622493,-7798
0.03911926841298608,-8161
0.039141946249747234,-7969
0.039164624086508386,-8216
0.03918730192326954,-8275
0.03920997976003069,-8454
0.039232657596791835,-8616
0.03925533543355299,-8676
0.03927801327031414,-8686
0.03930069110707529,-8804
0.039323368943836444,-8972
0.039346046780597596,-9240
0.03936872461735875,-9336
0.0393914024541199,-9301
0.03941408029088105,-8736
0.0394367581276422,-8940
0.03945943596440335,-9034
0.0394821138011645,-9408
0.039504791637925654,-9502
0.039527469474686806,-9326
0.03955014731144796,-9114
0.03957282514820911,-9140
0.03959550298497026,-9410
0.039618180821731415,-9716
0.03964085865849256,-9862
0.03966353649525371,-9572
0.039686214332014864,-9102
0.03970889216877602,-9006
0.03973157000553717,-8966
0.03975424784229832,-8639
0.03977692567905947,-8105
0.039799603515820625,-7652
0.03982228135258178,-7051
0.03984495918934292,-6902
0.039867637026104075,-6873
0.03989031486286523,-7086
0.03991299269962638,-7382
0.03993567053638753,-7776
0.03995834837314868,-8034
0.039981026209909835,-8378
0.04000370404667099,-8940
0.04002638188343213,-9274
0.040049059720193285,-9010
0.04007173755695444,-8738
0.04009441539371559,-8394
0.04011709323047674,-8161
0.040139771067237894,-8200
0.040162448903999046,-8234
0.0401851267407602,-8108
0.04020780457752135,-8238
0.040230482414282495,-8071
0.04025316025104365,-7814
0.0402758380878048,-8009
0.04029851592456595,-8234
0.040321193761327104,-7960
0.040343871598088256,-7764
0.04036654943484941,-7420
0.04038922727161056,-7392
0.04041190510837171,-7694
0.04043458294513286,-8090
0.04045726078189401,-8070
0.04047993861865516,-7900
0.040502616455416314,-7682
0.040525294292177466,-7844
0.04054797212893862,-7771
0.04057064996569977,-7962
0.04059332780246092,-7796
0.04061600563922207,-7782
0.04063868347598322,-7348
0.04066136131274437,-7452
0.040684039149505524,-7582
0.040706716986266676,-7626
0.04072939482302783,-7578
0.04075207265978898,-7276
0.04077475049655013,-7209
0.040797428333311285,-7205
0.04082010617007243,-7292
0.04084278400683358,-7506
0.040865461843594734,-7782
0.04088813968035589,-7642
0.04091081751711704,-7506
0.04093349535387819,-7534
0.04095617319063934,-7688
0.040978851027400495,-7942
0.04100152886416165,-8262
0.04102420670092279,-8134
0.041046884537683945,-7842
0.0410695623744451,-7859
0.04109224021120625,-8034
0.0411149180479674,-8305
0.04113759588472855,-8788
0.041160273721489705,-8724
0.04118295155825086,-8458
0.04120562939501201,-8512
0.041228307231773155,-8558
0.04125098506853431,-8500
0.04127366290529546,-8560
0.04129634074205661,-8721
0.041319018578817764,-8322
0.041341696415578916,-8442
0.04136437425234007,-8473
0.04138705208910122,-8602
0.041409729925862365,-8895
0.04143240776262352,-8764
0.04145508559938467,-8394
0.04147776343614582,-8643
0.041500441272906974,-8591
0.041523119109668126,-8808
0.04154579694642928,-9038
0.04156847478319043,-9044
0.04159115261995158,-8890
0.04161383045671273,-9116
0.04163650829347388,-9128
0.04165918613023503,-9220
0.041681863966996184,-9736
0.041704541803757336,-9722
0.04172721964051849,-9754
0.04174989747727964,-9662
0.04177257531404079,-9772
0.041795253150801945,-10027
0.04181793098756309,-10085
0.04184060882432424,-10266
0.041863286661085394,-10144
0.041885964497846546,-10107
0.0419086423346077,-9982
0.04193132017136885,-10002
0.04195399800813,-9975
0.041976675844891155,-10009
0.0419993536816523,-9940
0.04202203151841345,-9954
0.042044709355174605,-10127
0.04206738719193576,-10053
0.04209006502869691,-10220
0.04211274286545806,-9960
0.04213542070221921,-9800
0.042158098538980365,-9852
0.04218077637574152,-9613
0.04220345421250266,-9716
0.042226132049263815,-9382
0.04224880988602497,-8788
0.04227148772278612,-8486
0.04229416555954727,-8210
0.04231684339630842,-7694
0.042339521233069576,-7815
0.04236219906983073,-7510
0.04238487690659188,-7326
0.042407554743353025,-6876
0.04243023258011418,-6920
0.04245291041687533,-6768
0.04247558825363648,-6917
0.042498266090397634,-6760
0.042520943927158786,-6572
0.04254362176391994,-6326
0.04256629960068109,-6271
0.04258897743744224,-6263
0.04261165527420339,-6442
0.04263433311096454,-6523
0.04265701094772569,-6576
0.042679688784486844,-6491
0.042702366621247996,-6320
0.04272504445800915,-6184
0.0427477222947703,-6272
0.04277040013153145,-6522
0.0427930779682926,-6336
0.04281575580505375,-6064
0.0428384336418149,-5740
0.042861111478576054,-5958
0.042883789315337206,-6136
0.04290646715209836,-6438
0.04292914498885951,-6271
0.04295182282562066,-5994
0.042974500662381815,-6076
0.04299717849914296,-6290
0.04301985633590411,-6754
0.043042534172665264,-7036
0.043065212009426417,-7226
0.04308788984618757,-7236
0.04311056768294872,-7371
0.04313324551970987,-7344
0.043155923356471025,-7562
0.04317860119323218,-7656
0.04320127902999332,-7616
0.043223956866754475,-7493
0.04324663470351563,-7396
0.04326931254027678,-7621
0.04329199037703793,-7872
0.04331466821379908,-8164
0.043337346050560235,-8190
0.04336002388732139,-8201
0.04338270172408253,-8283
0.043405379560843685,-8310
0.04342805739760484,-8564
0.04345073523436599,-8570
0.04347341307112714,-8376
0.04349609090788829,-8234
0.043518768744649446,-8389
0.0435414465814106,-8444
0.04356412441817175,-8535
0.043586802254932895,-8617
0.04360948009169405,-8538
0.0436321579284552,-8536
0.04365483576521635,-8628
0.043677513601977504,-8184
0.043700191438738656,-8046
0.04372286927549981,-8076
0.04374554711226096,-8256
0.04376822494902211,-8106
0.04379090278578326,-7710
0.04381358062254441,-6938
0.04383625845930556,-6218
0.043858936296066714,-5302
0.043881614132827866,-3962
0.04390429196958902,-2714
0.04392696980635017,-1797
0.04394964764311132,-1498
0.043972325479872475,-956
0.04399500331663362,-190
0.04401768115339477,214
0.044040358990155924,234
0.044063036826917076,-634
0.04408571466367823,-2133
0.04410839250043938,-3844
0.04413107033720053,-5709
0.044153748173961685,-6762
0.04417642601072283,-7610
0.04419910384748398,-8310
0.044221781684245134,-8420
0.04424445952100629,-8092
0.04426713735776744,-7132
0.04428981519452859,-6624
0.04431249303128974,-6248
0.044335170868050895,-5800
0.04435784870481205,-5430
0.04438052654157319,-4418
0.044403204378334345,-2928
0.0444258822150955,-1080
0.04444856005185665,546
0.0444712378886178,2455
0.04449391572537895,4016
0.044516593562140105,5423
0.04453927139890126,6794
0.04456194923566241,8252
0.044584627072423555,9432
0.04460730490918471,9542
0.04462998274594586,7519
0.04465266058270701,4954
0.044675338419468164,1582
0.044698016256229316,-1290
0.04472069409299047,-3654
0.04474337192975162,-5315
0.044766049766512765,-6261
0.04478872760327392,-7336
0.04481140544003507,-7692
0.04483408327679622,-7702
0.044856761113557374,-7052
0.044879438950318526,-6377
0.04490211678707968,-6229
0.04492479462384083,-6410
0.04494747246060198,-6380
0.04497015029736313,-6246
0.04499282813412428,-6180
0.04501550597088543,-5842
0.045038183807646584,-6016
0.045060861644407736,-5418
0.04508353948116889,-5362
0.04510621731793004,-4822
0.04512889515469119,-4176
0.045151572991452345,-3892
0.04517425082821349,-3912
0.04519692866497464,-3947
0.045219606501735794,-4711
0.045242284338496946,-5628
0.0452649621752581,-6285
0.04528764001201925,-7102
0.0453103178487804,-7438
0.045332995685541555,-7296
0.04535567352230271,-7004
0.04537835135906385,-6508
0.045401029195825005,-6332
0.04542370703258616,-6109
0.04544638486934731,-5922
0.04546906270610846,-6202
0.04549174054286961,-6772
0.045514418379630765,-6878
0.04553709621639192,-6722
0.04555977405315306,-6714
0.045582451889914215,-6886
0.04560512972667537,-7238
0.04562780756343652,-7617
0.04565048540019767,-7604
0.04567316323695882,-7354
0.045695841073719976,-7447
0.04571851891048113,-7367
0.04574119674724228,-7524
0.045763874584003425,-7382
0.04578655242076458,-7416
0.04580923025752573,-7092
0.04583190809428688,-6989
0.045854585931048034,-7064
0.045877263767809186,-7119
0.04589994160457034,-7116
0.04592261944133149,-6724
0.04594529727809264,-6098
0.04596797511485379,-5990
0.04599065295161494,-5901
0.04601333078837609,-6013
0.046036008625137244,-5978
0.046058686461898396,-5998
0.04608136429865955,-5876
0.0461040421354207,-5844
0.04612671997218185,-5846
0.046149397808943,-5780
0.04617207564570415,-5988
0.0461947534824653,-5854
0.046217431319226454,-5365
0.046240109155987606,-5218
0.04626278699274876,-5510
0.04628546482950991,-5426
0.04630814266627106,-5414
0.046330820503032215,-5364
0.04635349833979336,-5371
0.04637617617655451,-5802
0.046398854013315664,-6036
0.046421531850076816,-6502
0.04644420968683797,-6457
0.04646688752359912,-6068
0.04648956536036027,-5986
0.046512243197121425,-6028
0.04653492103388258,-6285
0.04655759887064372,-6373
0.046580276707404875,-6393
0.04660295454416603,-6269
0.04662563238092718,-6212
0.04664831021768833,-6066
0.04667098805444948,-6321
0.046693665891210635,-6392
0.04671634372797179,-6512
0.04673902156473294,-6356
0.046761699401494085,-6247
0.04678437723825524,-6068
0.04680705507501639,-6033
0.04682973291177754,-6090
0.04685241074853869,-5905
0.046875088585299846,-5385
0.046897766422061,-5426
0.04692044425882215,-5286
0.046943122095583295,-5310
0.04696579993234445,-5482
0.0469884777691056,-5152
0.04701115560586675,-5369
0.047033833442627904,-5091
0.047056511279389056,-4982
0.04707918911615021,-5082
0.04710186695291136,-5324
0.04712454478967251,-5522
0.04714722262643366,-5363
0.04716990046319481,-4890
0.04719257829995596,-4733
0.047215256136717114,-4845
0.047237933973478266,-4854
0.04726061181023942,-4892
0.04728328964700057,-4624
0.04730596748376172,-4346
0.047328645320522875,-4164
0.04735132315728402,-4316
0.04737400099404517,-3915
0.047396678830806324,-3829
0.047419356667567476,-3560
0.04744203450432863,-3454
0.04746471234108978,-3432
0.04748739017785093,-3738
0.047510068014612085,-4136
0.04753274585137323,-4565
0.04755542368813438,-5007
0.047578101524895534,-4804
0.04760077936165669,-4880
0.04762345719841784,-4744
0.04764613503517899,-5070
0.04766881287194014,-5248
0.047691490708701295,-5464
0.04771416854546245,-5552
0.04773684638222359,-5722
0.047759524218984745,-5878
0.0477822020557459,-6212
0.04780487989250705,-6252
0.0478275577292682,-6508
0.04785023556602935,-6492
0.047872913402790505,-6783
0.04789559123955166,-7145
0.04791826907631281,-7426
0.047940946913073955,-7774
0.04796362474983511,-8046
0.04798630258659626,-8280
0.04800898042335741,-8560
0.048031658260118563,-8697
0.048054336096879716,-8842
0.04807701393364087,-9002
0.04809969177040202,-8966
0.04812236960716317,-8898
0.04814504744392432,-8860
0.04816772528068547,-8812
0.04819040311744662,-8918
0.048213080954207774,-8806
0.048235758790968926,-8696
0.04825843662773008,-8556
0.04828111446449123,-8558
0.04830379230125238,-8814
0.04832647013801353,-8923
0.04834914797477468,-8902
0.04837182581153583,-8606
0.048394503648296984,-8733
0.048417181485058136,-8723
0.04843985932181929,-8824
0.04846253715858044,-8892
0.04848521499534159,-9122
0.048507892832102745,-8870
0.04853057066886389,-8776
0.04855324850562504,-8622
0.048575926342386194,-8370
0.048598604179147346,-8521
0.0486212820159085,-8608
0.04864395985266965,-8560
0.0486666376894308,-8555
0.048689315526191955,-8598
0.04871199336295311,-8638
0.04873467119971425,-8774
0.048757349036475404,-8838
0.04878002687323656,-8784
0.04880270470999771,-8358
0.04882538254675886,-8154
0.04884806038352001,-7888
0.048870738220281165,-8262
0.04889341605704232,-8533
0.04891609389380346,-8488
0.048938771730564615,-8282
0.04896144956732577,-7712
0.04898412740408692,-7491
0.04900680524084807,-7453
0.04902948307760922,-7454
0.049052160914370375,-7428
0.04907483875113153,-7250
0.04909751658789268,-7272
0.049120194424653825,-7150
0.04914287226141498,-7356
0.04916555009817613,-7270
0.04918822793493728,-7355
0.049210905771698434,-7054
0.049233583608459586,-6902
0.04925626144522074,-6713
0.04927893928198189,-7046
0.04930161711874304,-7137
0.04932429495550419,-7104
0.04934697279226534,-6648
0.04936965062902649,-6620
0.049392328465787644,-6282
0.049415006302548796,-6612
0.04943768413930995,-6558
0.0494603619760711,-5982
0.04948303981283225,-5622
0.049505717649593405,-5322
0.04952839548635455,-5200
0.0495510733231157,-5248
0.049573751159876854,-5167
0.049596428996638006,-4938
0.04961910683339916,-4652
0.04964178467016031,-4246
0.04966446250692146,-4143
0.049687140343682615,-4206
0.04970981818044376,-4296
0.04973249601720491,-4470
0.049755173853966064,-4634
0.049777851690727216,-4790
0.04980052952748837,-4944
0.04982320736424952,-5046
0.04984588520101067,-5076
0.049868563037771825,-5233
0.04989124087453298,-5444
0.04991391871129412,-5509
0.049936596548055275,-5538
0.04995927438481643,-5952
0.04998195222157758,-6294
0.05000463005833873,-6663
0.05002730789509988,-7036
0.050049985731861035,-7455
0.05007266356862219,-7384
0.05009534140538334,-7460
0.050118019242144485,-7796
0.05014069707890564,-7916
0.05016337491566679,-7952
0.05018605275242794,-8038
0.05020873058918909,-8230
0.050231408425950246,-8217
0.0502540862627114,-8244
0.05027676409947255,-8289
0.050299441936233695,-8144
0.05032211977299485,-7998
0.050344797609756,-7774
0.05036747544651715,-7881
0.050390153283278304,-7854
0.050412831120039456,-8262
0.05043550895680061,-8070
0.05045818679356176,-7810
0.05048086463032291,-7551
0.05050354246708406,-7329
0.05052622030384521,-6723
0.05054889814060636,-5228
0.050571575977367514,-3384
0.050594253814128666,-1622
0.05061693165088982,-32
0.05063960948765097,1536
0.05066228732441212,3376
0.050684965161173275,5074
0.05070764299793442,6774
0.05073032083469557,7632
0.050752998671456724,7752
0.050775676508217876,6180
0.05079835434497903,3550
0.05082103218174018,464
0.05084371001850133,-2620
0.050866387855262485,-5446
0.05088906569202364,-7662
0.05091174352878478,-9146
0.050934421365545934,-9731
0.050957099202307087,-9632
0.05097977703906824,-8534
0.05100245487582939,-7270
0.05102513271259054,-7082
0.051047810549351695,-7157
0.05107048838611285,-7502
0.05109316622287399,-7428
0.051115844059635145,-6960
0.0511385218963963,-6792
0.05116119973315745,-6923
0.0511838775699186,-7184
0.05120655540667975,-7094
0.051229233243440905,-6642
0.05125191108020206,-6174
0.05127458891696321,-6222
0.051297266753724355,-6504
0.05131994459048551,-6568
0.05134262242724666,-6544
0.05136530026400781,-6101
0.05138797810076896,-5653
0.051410655937530116,-5339
0.05143333377429127,-5256
0.05145601161105242,-5570
0.05147868944781357,-5636
0.05150136728457472,-5320
0.05152404512133587,-4662
0.05154672295809702,-4600
0.051569400794858174,-4572
0.051592078631619326,-4942
0.05161475646838048,-4902
0.05163743430514163,-4548
0.05166011214190278,-4257
0.05168278997866393,-4020
0.05170546781542508,-3664
0.05172814565218623,-3732
0.051750823488947384,-3520
0.051773501325708536,-3280
0.05179617916246969,-2767
0.05181885699923084,-2734
0.05184153483599199,-2780
0.051864212672753145,-3158
0.05188689050951429,-3267
0.05190956834627544,-3136
0.051932246183036594,-3142
0.051954924019797746,-3154
0.0519776018565589,-3282
0.05200027969332005,-3423
0.0520229575300812,-3446
0.052045635366842355,-3418
0.05206831320360351,-3324
0.05209099104036465,-3599
0.052113668877125804,-3932
0.05213634671388696,-4430
0.05215902455064811,-4230
0.05218170238740926,-4196
0.05220438022417041,-4126
0.052227058060931565,-4210
0.05224973589769272,-4456
0.05227241373445387,-4526
0.052295091571215015,-4558
0.05231776940797617,-4557
0.05234044724473732,-4480
0.05236312508149847,-4852
0.05238580291825962,-5046
0.052408480755020775,-5224
0.05243115859178193,-5098
0.05245383642854308,-4988
0.052476514265304225,-4930
0.05249919210206538,-4920
0.05252186993882653,-5067
0.05254454777558768,-5419
0.052567225612348834,-5416
0.052589903449109986,-5268
0.05261258128587114,-5178
0.05263525912263229,-5492
0.05265793695939344,-5980
0.05268061479615459,-6227
0.05270329263291574,-6431
0.05272597046967689,-6508
0.052748648306438044,-6507
0.052771326143199196,-7062
0.05279400397996035,-7725
0.0528166818167215,-8269
0.05283935965348265,-9057
0.052862037490243804,-9476
0.05288471532700495,-9826
0.0529073931637661,-10148
0.052930071000527254,-10512
0.052952748837288406,-11040
0.05297542667404956,-11330
0.05299810451081071,-11493
0.05302078234757186,-11498
0.053043460184333015,-11462
0.05306613802109416,-11849
0.05308881585785531,-12176
0.053111493694616464,-12074
0.053134171531377616,-11533
0.05315684936813877,-11230
0.05317952720489992,-11338
0.05320220504166107,-11444
0.053224882878422225,-11234
0.05324756071518338,-10915
0.05327023855194452,-10099
0.053292916388705674,-9660
0.05331559422546683,-9088
0.05333827206222798,-8850
0.05336094989898913,-8456
0.05338362773575028,-8228
0.053406305572511435,-7784
0.05342898340927259,-7167
0.05345166124603374,-6166
0.053474339082794885,-5245
0.05349701691955604,-4142
0.05351969475631719,-3160
0.05354237259307834,-1736
0.05356505042983949,168
0.053587728266600645,1507
0.0536104061033618,2557
0.05363308394012295,3556
0.0536557617768841,4395
0.05367843961364525,5100
0.0537011174504064,4901
0.05372379528716755,3760
0.053746473123928704,2210
0.053769150960689856,100
0.05379182879745101,-1484
0.05381450663421216,-2423
0.05383718447097331,-2938
0.05385986230773446,-3038
0.05388254014449561,-2964
0.05390521798125676,-2549
0.053927895818017914,-2281
0.053950573654779066,-1643
0.05397325149154022,-1386
0.05399592932830137,-1397
0.05401860716506252,-1557
0.054041285001823675,-2026
0.05406396283858482,-2298
0.05408664067534597,-2340
0.054109318512107124,-2700
0.054131996348868276,-2832
0.05415467418562943,-3042
0.05417735202239058,-3062
0.05420002985915173,-3436
0.054222707695912885,-3438
0.05424538553267404,-3393
0.05426806336943518,-3480
0.054290741206196334,-3794
0.054313419042957486,-4212
0.05433609687971864,-4610
0.05435877471647979,-5119
0.05438145255324094,-5282
0.054404130390002095,-5508
0.05442680822676325,-5646
0.05444948606352439,-5795
0.054472163900285545,-5958
0.0544948417370467,-5984
0.05451751957380785,-5930
0.054540197410569,-5894
0.05456287524733015,-6212
0.054585553084091305,-6480
0.05460823092085246,-6561
0.05463090875761361,-6428
0.054653586594374755,-5932
0.05467626443113591,-5823
0.05469894226789706,-5896
0.05472162010465821,-6330
0.05474429794141936,-6640
0.054766975778180516,-6404
0.05478965361494167,-5980
0.05481233145170282,-5870
0.05483500928846397,-6045
0.05485768712522512,-6270
0.05488036496198627,-6629
0.05490304279874742,-6274
0.054925720635508574,-6157
0.054948398472269726,-6361
0.05497107630903088,-6780
0.05499375414579203,-7025
0.05501643198255318,-7018
0.055039109819314334,-7010
0.05506178765607548,-6778
0.05508446549283663,-6908
0.055107143329597784,-7049
0.055129821166358936,-7378
0.05515249900312009,-7644
0.05517517683988124,-7634
0.05519785467664239,-7348
0.055220532513403545,-7387
0.05524321035016469,-7458
0.05526588818692584,-7824
0.055288566023686994,-7876
0.055311243860448146,-7662
0.0553339216972093,-7378
0.05535659953397045,-7294
0.0553792773707316,-7076
0.055401955207492755,-7028
0.05542463304425391,-6509
0.05544731088101505,-5715
0.055469988717776204,-5124
0.055492666554537357,-4706
0.05551534439129851,-4465
0.05553802222805966,-4448
0.05556070006482081,-4503
0.055583377901581965,-4442
0.05560605573834312,-4234
0.05562873357510427,-4628
0.055651411411865415,-5044
0.05567408924862657,-5418
0.05569676708538772,-5505
0.05571944492214887,-5370
0.05574212275891002,-5267
0.055764800595671175,-5068
0.05578747843243233,-5562
0.05581015626919348,-5605
0.055832834105954625,-5824
0.05585551194271578,-5434
0.05587818977947693,-4936
0.05590086761623808,-4816
0.05592354545299923,-4882
0.055946223289760386,-4834
0.05596890112652154,-4729
0.05599157896328269,-4356
0.05601425680004384,-4165
0.05603693463680499,-4090
0.05605961247356614,-4030
0.05608229031032729,-3982
0.056104968147088444,-3676
0.056127645983849596,-3440
0.05615032382061075,-2984
0.0561730016573719,-2891
0.05619567949413305,-2638
0.056218357330894204,-2818
0.05624103516765535,-2858
0.0562637130044165,-2933
0.056286390841177654,-2896
0.056309068677938806,-2678
0.05633174651469996,-2474
0.05635442435146111,-2580
0.05637710218822226,-2118
0.056399780024983415,-1358
0.05642245786174457,226
0.05644513569850571,1850
0.056467813535266864,3266
0.056490491372028016,4588
0.05651316920878917,6124
0.05653584704555032,7810
0.05655852488231147,9262
0.056581202719072625,10036
0.05660388055583378,10374
0.05662655839259492,9950
0.056649236229356074,8584
0.05667191406611723,6544
0.05669459190287838,4316
0.05671726973963953,1162
0.05673994757640068,-1972
0.056762625413161835,-4190
0.05678530324992299,-5084
0.05680798108668414,-5440
0.056830658923445285,-5510
0.05685333676020644,-5588
0.05687601459696759,-5717
0.05689869243372874,-5762
0.05692137027048989,-6156
0.056944048107251045,-6080
0.0569667259440122,-5994
0.05698940378077335,-6084
0.0570120816175345,-6402
0.05703475945429565,-6880
0.0570574372910568,-7034
0.05708011512781795,-7046
0.057102792964579104,-7031
0.057125470801340256,-7242
0.05714814863810141,-7320
0.05717082647486256,-7316
0.05719350431162371,-7369
0.05721618214838486,-7357
0.05723885998514601,-7138
0.05726153782190716,-7331
0.057284215658668314,-7361
0.057306893495429466,-7459
0.05732957133219062,-7480
0.05735224916895177,-7508
0.05737492700571292,-7310
0.057397604842474075,-7058
0.05742028267923522,-6920
0.05744296051599637,-7350
0.057465638352757524,-7490
0.057488316189518676,-7226
0.05751099402627983,-6812
0.05753367186304098,-7064
0.05755634969980213,-7108
0.057579027536563285,-7171
0.05760170537332444,-7144
0.05762438321008558,-6938
0.057647061046846734,-6757
0.057669738883607886,-6741
0.05769241672036904,-6864
0.05771509455713019,-7014
0.05773777239389134,-6986
0.057760450230652495,-6634
0.05778312806741365,-6380
0.0578058059041748,-6452
0.057828483740935945,-6362
0.0578511615776971,-6471
0.05787383941445825,-6252
0.0578965172512194,-6112
0.05791919508798055,-5628
0.057941872924741705,-5332
0.05796455076150286,-5346
0.05798722859826401,-5204
0.058009906435025155,-5038
0.05803258427178631,-4919
0.05805526210854746,-4860
0.05807793994530861,-5041
0.05810061778206976,-5166
0.058123295618830915,-5585
0.05814597345559207,-5924
0.05816865129235322,-5886
0.05819132912911437,-5738
0.05821400696587552,-5836
0.05823668480263667,-6008
0.05825936263939782,-6276
0.058282040476158974,-6200
0.058304718312920126,-5982
0.05832739614968128,-5650
0.05835007398644243,-5486
0.05837275182320358,-5158
0.058395429659964734,-5012
0.05841810749672588,-4704
0.05844078533348703,-4394
0.058463463170248184,-3918
0.058486141007009336,-3474
0.05850881884377049,-3366
0.05853149668053164,-3677
0.05855417451729279,-3857
0.058576852354053945,-3984
0.05859953019081509,-4280
0.05862220802757624,-4526
0.058644885864337394,-4808
0.058667563701098546,-5146
0.0586902415378597,-5455
0.05871291937462085,-5333
0.058735597211382,-5276
0.058758275048143155,-5434
0.05878095288490431,-5768
0.05880363072166545,-5958
0.058826308558426604,-5838
0.058848986395187756,-5861
0.05887166423194891,-5870
0.05889434206871006,-6034
0.05891701990547121,-6286
0.058939697742232365,-6546
0.05896237557899352,-6915
0.05898505341575467,-6921
0.059007731252515815,-6864
0.05903040908927697,-7178
0.05905308692603812,-7443
0.05907576476279927,-7759
0.05909844259956042,-7836
0.059121120436321575,-7846
0.05914379827308273,-7840
0.05916647610984388,-7981
0.05918915394660503,-8119
0.05921183178336618,-8148
0.05923450962012733,-8260
0.05925718745688848,-8139
0.05927986529364963,-7902
0.059302543130410786,-7760
0.05932522096717194,-7568
0.05934789880393309,-7610
0.05937057664069424,-7282
0.05939325447745539,-7035
0.05941593231421654,-6598
0.05943861015097769,-6572
0.059461287987738844,-6761
0.059483965824499996,-6904
0.05950664366126115,-7162
0.0595293214980223,-6901
0.05955199933478345,-6840
0.059574677171544604,-7053
0.05959735500830575,-7144
0.0596200328450669,-6978
0.059642710681828054,-7052
0.059665388518589206,-6973
0.05968806635535036,-6800
0.05971074419211151,-6954
0.05973342202887266,-6847
0.059756099865633815,-7028
0.05977877770239497,-7220
0.05980145553915611,-7190
0.059824133375917264,-6996
0.059846811212678416,-6979
0.05986948904943957,-7088
0.05989216688620072,-7280
0.05991484472296187,-7422
0.059937522559723025,-7362
0.05996020039648418,-7294
0.05998287823324532,-7272
0.060005556070006474,-7284
0.06002823390676763,-7404
0.06005091174352878,-7730
0.06007358958028993,-7823
0.06009626741705108,-7432
0.060118945253812235,-7328
0.06014162309057339,-7588
0.06016430092733454,-7552
0.060186978764095685,-7562
0.06020965660085684,-7476
0.06023233443761799,-7255
0.06025501227437914,-7430
0.06027769011114029,-7274
0.060300367947901445,-7446
0.0603230457846626,-7230
0.06034572362142375,-7060
0.0603684014581849,-6728
0.06039107929494605,-6728
0.0604137571317072,-6695
0.06043643496846835,-6822
0.060459112805229503,-6730
0.060481790641990656,-6842
0.06050446847875181,-6861
0.06052714631551296,-7106
0.06054982415227411,-7638
0.060572501989035264,-8120
0.06059517982579641,-8438
0.06061785766255756,-8722
0.060640535499318714,-8549
0.060663213336079866,-8534
0.06068589117284102,-8593
0.06070856900960217,-8547
0.06073124684636332,-8260
0.060753924683124474,-8068
0.06077660251988562,-7754
0.06079928035664677,-7873
0.060821958193407924,-7726
0.060844636030169076,-7885
0.06086731386693023,-7946
0.06088999170369138,-7870
0.06091266954045253,-7558
0.060935347377213685,-7514
0.06095802521397484,-7454
0.06098070305073598,-7452
0.061003380887497134,-7371
0.061026058724258286,-7302
0.06104873656101944,-6853
0.06107141439778059,-6656
0.06109409223454174,-6738
0.061116770071302895,-6865
0.06113944790806405,-6790
0.0611621257448252,-6537
0.061184803581586344,-6104
0.0612074814183475,-6320
0.06123015925510865,-6655
0.0612528370918698,-7000
0.06127551492863095,-7448
0.061298192765392105,-7737
0.06132087060215326,-7558
0.06134354843891441,-7768
0.061366226275675555,-7326
0.06138890411243671,-7330
0.06141158194919786,-7065
0.06143425978595901,-6552
0.06145693762272016,-6191
0.061479615459481315,-5924
0.06150229329624247,-5582
0.06152497113300362,-4642
0.06154764896976477,-3254
0.06157032680652592,-1546
0.06159300464328707,131
0.06161568248004822,2004
0.061638360316809374,4084
0.061661038153570526,5678
0.06168371599033168,6952
0.06170639382709283,8322
0.06172907166385398,9272
0.061751749500615134,8622
0.06177442733737628,6231
0.06179710517413743,2972
0.061819783010898584,-721
0.061842460847659736,-3854
0.06186513868442089,-5601
0.06188781652118204,-6607
0.06191049435794319,-7380
0.061933172194704345,-7664
0.0619558500314655,-7612
0.06197852786822664,-7012
0.062001205704987794,-6504
0.062023883541748946,-6620
0.0620465613785101,-7054
0.06206923921527125,-7642
0.0620919170520324,-7742
0.062114594888793555,-7688
0.06213727272555471,-7106
0.06215995056231585,-6906
0.062182628399077004,-6958
0.062205306235838156,-7108
0.06222798407259931,-7419
0.06225066190936046,-7339
0.06227333974612161,-7329
0.062296017582882765,-7463
0.06231869541964392,-7432
0.06234137325640507,-7845
0.062364051093166215,-8006
0.06238672892992737,-8140
0.06240940676668852,-7832
0.06243208460344967,-7941
0.06245476244021082,-8074
0.062477440276971975,-8422
0.06250011811373313,-8559
0.06252279595049427,-8274
0.06254547378725543,-8030
0.06256815162401658,-8156
0.06259082946077774,-8130
0.06261350729753888,-8140
0.06263618513430004,-8036
0.06265886297106119,-7845
0.06268154080782233,-7556
0.06270421864458349,-7672
0.06272689648134464,-7755
0.0627495743181058,-7772
0.06277225215486694,-7653
0.0627949299916281,-7464
0.06281760782838924,-7286
0.0628402856651504,-7464
0.06286296350191155,-7498
0.0628856413386727,-7608
0.06290831917543385,-7318
0.062930997012195,-7498
0.06295367484895616,-7622
0.0629763526857173,-7968
0.06299903052247846,-8198
0.0630217083592396,-8519
0.06304438619600077,-8788
0.06306706403276191,-8947
0.06308974186952306,-8995
0.06311241970628421,-9652
0.06313509754304536,-9874
0.06315777537980652,-9940
0.06318045321656766,-10068
0.06320313105332882,-9914
0.06322580889008997,-9642
0.06324848672685111,-9468
0.06327116456361227,-9421
0.06329384240037342,-9292
0.06331652023713458,-9260
0.06333919807389572,-8932
0.06336187591065688,-8538
0.06338455374741803,-8018
0.06340723158417919,-7668
0.06342990942094033,-7534
0.06345258725770148,-7274
0.06347526509446264,-6752
0.06349794293122378,-6516
0.06352062076798494,-6301
0.06354329860474608,-6301
0.06356597644150724,-6044
0.06358865427826839,-5690
0.06361133211502955,-4758
0.0636340099517907,-4100
0.06365668778855184,-3136
0.063679365625313,-2425
0.06370204346207414,-1660
0.0637247212988353,-1016
0.06374739913559645,-290
0.0637700769723576,977
0.06379275480911875,1528
0.06381543264587991,1447
0.06383811048264106,652
0.0638607883194022,-158
0.06388346615616336,-1316
0.0639061439929245,-2848
0.06392882182968566,-4224
0.06395149966644681,-5704
0.06397417750320797,-7012
0.06399685533996911,-7789
0.06401953317673027,-7948
0.06404221101349142,-7766
0.06406488885025256,-7680
0.06408756668701372,-7649
0.06411024452377487,-7684
0.06413292236053603,-7764
0.06415560019729717,-7679
0.06417827803405833,-7562
0.06420095587081948,-7656
0.06422363370758064,-7904
0.06424631154434178,-8247
0.06426898938110293,-8332
0.06429166721786408,-8406
0.06431434505462523,-8318
0.06433702289138639,-8445
0.06435970072814753,-8656
0.0643823785649087,-8698
0.06440505640166984,-8852
0.064427734238431,-8726
0.06445041207519214,-8464
0.06447308991195329,-8508
0.06449576774871445,-8570
0.06451844558547559,-8970
0.06454112342223675,-9153
0.0645638012589979,-8908
0.06458647909575906,-8678
0.0646091569325202,-8610
0.06463183476928135,-8472
0.0646545126060425,-8446
0.06467719044280365,-8282
0.06469986827956481,-8272
0.06472254611632595,-8143
0.06474522395308711,-8044
0.06476790178984826,-8178
0.06479057962660942,-8338
0.06481325746337056,-8374
0.06483593530013171,-8240
0.06485861313689287,-7472
0.06488129097365401,-7274
0.06490396881041517,-6890
0.06492664664717632,-6890
0.06494932448393748,-6734
0.06497200232069862,-6431
0.06499468015745978,-6048
0.06501735799422093,-6141
0.06504003583098207,-6222
0.06506271366774323,-6674
0.06508539150450438,-6772
0.06510806934126553,-6792
0.06513074717802668,-6980
0.06515342501478784,-7290
0.06517610285154898,-8062
0.06519878068831014,-8372
0.06522145852507129,-8688
0.06524413636183243,-8686
0.06526681419859359,-8532
0.06528949203535474,-8778
0.0653121698721159,-9078
0.06533484770887704,-9664
0.0653575255456382,-10012
0.06538020338239935,-9742
0.0654028812191605,-9344
0.06542555905592165,-9171
0.0654482368926828,-9296
0.06547091472944395,-9264
0.0654935925662051,-9050
0.06551627040296626,-8817
0.0655389482397274,-8526
0.06556162607648856,-8404
0.06558430391324971,-8306
0.06560698175001087,-8444
0.06562965958677201,-8378
0.06565233742353316,-8411
0.06567501526029432,-8174
0.06569769309705546,-8208
0.06572037093381662,-8386
0.06574304877057777,-8596
0.06576572660733893,-8568
0.06578840444410007,-8302
0.06581108228086123,-8052
0.06583376011762238,-7996
0.06585643795438352,-8200
0.06587911579114468,-8319
0.06590179362790582,-8426
0.06592447146466698,-8012
0.06594714930142813,-7434
0.06596982713818929,-7284
0.06599250497495043,-7441
0.06601518281171158,-7460
0.06603786064847274,-7386
0.06606053848523388,-6860
0.06608321632199504,-6482
0.06610589415875619,-6441
0.06612857199551735,-6592
0.06615124983227849,-6557
0.06617392766903965,-6326
0.0661966055058008,-6096
0.06621928334256194,-5894
0.0662419611793231,-6031
0.06626463901608425,-6252
0.0662873168528454,-6262
0.06630999468960655,-6455
0.06633267252636771,-6390
0.06635535036312885,-6006
0.06637802819989001,-5628
0.06640070603665116,-5810
0.0664233838734123,-5582
0.06644606171017346,-5564
0.06646873954693461,-5346
0.06649141738369577,-5102
0.06651409522045691,-5396
0.06653677305721807,-5568
0.06655945089397922,-5914
0.06658212873074038,-6043
0.06660480656750152,-6076
0.06662748440426267,-5770
0.06665016224102382,-5830
0.06667284007778497,-5918
0.06669551791454613,-6120
0.06671819575130727,-6020
0.06674087358806843,-5490
0.06676355142482958,-4875
0.06678622926159074,-4432
0.06680890709835188,-3970
0.06683158493511303,-2741
0.06685426277187419,-1398
0.06687694060863533,336
0.06689961844539649,2332
0.06692229628215764,4472
0.0669449741189188,6270
0.06696765195567994,7788
0.0669903297924411,9012
0.06701300762920225,10386
0.06703568546596339,11623
0.06705836330272455,11369
0.0670810411394857,9412
0.06710371897624685,6372
0.067126396813008,2499
0.06714907464976916,-1064
0.0671717524865303,-3782
0.06719443032329146,-5744
0.06721710816005261,-6886
0.06723978599681375,-7902
0.06726246383357491,-8438
0.06728514167033606,-8451
0.06730781950709722,-7656
0.06733049734385836,-7383
0.06735317518061952,-7152
0.06737585301738067,-7098
0.06739853085414181,-7276
0.06742120869090297,-7131
0.06744388652766412,-7024
0.06746656436442527,-7315
0.06748924220118642,-7797
0.06751192003794758,-8548
0.06753459787470872,-9402
0.06755727571146988,-9763
0.06757995354823103,-9952
0.06760263138499217,-10379
0.06762530922175333,-10333
0.06764798705851448,-10632
0.06767066489527564,-11196
0.06769334273203678,-11403
0.06771602056879794,-11308
0.06773869840555909,-11319
0.06776137624232025,-11293
0.06778405407908139,-11310
0.06780673191584254,-11430
0.0678294097526037,-11396
0.06785208758936484,-11164
0.067874765426126,-11144
0.06789744326288714,-10967
0.0679201210996483,-10836
0.06794279893640945,-10846
0.06796547677317061,-10492
0.06798815460993175,-9885
0.0680108324466929,-10161
0.06803351028345406,-10166
0.0680561881202152,-10463
0.06807886595697636,-10552
0.0681015437937375,-10314
0.06812422163049867,-10014
0.06814689946725981,-9844
0.06816957730402097,-9690
0.06819225514078212,-9796
0.06821493297754326,-9950
0.06823761081430442,-9902
0.06826028865106556,-9736
0.06828296648782672,-9588
0.06830564432458787,-9682
0.06832832216134903,-9596
0.06835099999811017,-9220
0.06837367783487133,-8778
0.06839635567163248,-8528
0.06841903350839362,-8062
0.06844171134515478,-8133
0.06846438918191593,-7986
0.06848706701867709,-7839
0.06850974485543823,-7699
0.06853242269219939,-7288
0.06855510052896054,-7272
0.0685777783657217,-7454
0.06860045620248284,-7678
0.06862313403924399,-7602
0.06864581187600514,-7158
0.06866848971276629,-6670
0.06869116754952745,-6507
0.0687138453862886,-6536
0.06873652322304975,-6638
0.0687592010598109,-6979
0.06878187889657204,-6944
0.0688045567333332,-6641
0.06882723457009435,-6321
0.0688499124068555,-6044
0.06887259024361665,-6098
0.06889526808037781,-6194
0.06891794591713896,-6267
0.06894062375390012,-6208
0.06896330159066126,-6028
0.0689859794274224,-5954
0.06900865726418356,-6069
0.06903133510094471,-6089
0.06905401293770587,-6154
0.06907669077446701,-6076
0.06909936861122817,-6018
0.06912204644798932,-6298
0.06914472428475048,-6593
0.06916740212151162,-6803
0.06919007995827277,-6724
0.06921275779503393,-6730
0.06923543563179507,-6698
0.06925811346855623,-6668
0.06928079130531738,-7116
0.06930346914207854,-7309
0.06932614697883968,-7352
0.06934882481560084,-7103
0.06937150265236199,-7080
0.06939418048912313,-7052
0.06941685832588429,-7062
0.06943953616264543,-6940
0.0694622139994066,-6488
0.06948489183616774,-6100
0.0695075696729289,-6072
0.06953024750969004,-6147
0.0695529253464512,-6506
0.06957560318321235,-6542
0.06959828101997349,-6384
0.06962095885673465,-6116
0.0696436366934958,-6130
0.06966631453025696,-6298
0.0696889923670181,-6489
0.06971167020377926,-6538
0.0697343480405404,-6597
0.06975702587730157,-6332
0.06977970371406271,-6324
0.06980238155082386,-6389
0.06982505938758501,-6646
0.06984773722434616,-6798
0.06987041506110732,-6972
0.06989309289786846,-6685
0.06991577073462962,-6462
0.06993844857139077,-6763
0.06996112640815193,-7290
0.06998380424491307,-7422
0.07000648208167422,-7536
0.07002915991843538,-7657
0.07005183775519652,-8060
0.07007451559195768,-8560
0.07009719342871883,-9270
0.07011987126547999,-9476
0.07014254910224113,-9645
0.07016522693900228,-9742
0.07018790477576344,-9974
0.07021058261252458,-10263
0.07023326044928574,-10504
0.07025593828604688,-10789
0.07027861612280804,-10573
0.07030129395956919,-10658
0.07032397179633035,-10639
0.0703466496330915,-10773
0.07036932746985264,-10967
0.0703920053066138,-10986
0.07041468314337494,-10712
0.0704373609801361,-10476
0.07046003881689725,-10386
0.0704827166536584,-10562
0.07050539449041955,-10934
0.07052807232718071,-10760
0.07055075016394186,-10474
0.070573428000703,-10373
0.07059610583746416,-10198
0.0706187836742253,-10376
0.07064146151098646,-10493
0.07066413934774761,-10398
0.07068681718450877,-10308
0.07070949502126991,-10176
0.07073217285803107,-9931
0.07075485069479222,-10306
0.07077752853155336,-10540
0.07080020636831452,-10506
0.07082288420507567,-10198
0.07084556204183683,-9670
0.07086823987859797,-9658
0.07089091771535913,-9923
0.07091359555212028,-10070
0.07093627338888144,-10246
0.07095895122564258,-9904
0.07098162906240373,-9326
0.07100430689916488,-9152
0.07102698473592603,-9111
0.07104966257268719,-9000
0.07107234040944833,-9016
0.0710950182462095,-8682
0.07111769608297064,-8406
0.0711403739197318,-7947
0.07116305175649294,-7842
0.07118572959325409,-8098
0.07120840743001525,-8106
0.07123108526677639,-7814
0.07125376310353755,-7582
0.0712764409402987,-7684
0.07129911877705986,-7989
0.071321796613821,-8104
0.07134447445058216,-8282
0.0713671522873433,-8208
0.07138983012410445,-7852
0.07141250796086561,-7988
0.07143518579762675,-8322
0.07145786363438791,-8698
0.07148054147114906,-8522
0.07150321930791022,-8294
0.07152589714467136,-8115
0.07154857498143251,-8127
0.07157125281819367,-8128
0.07159393065495481,-8174
0.07161660849171597,-8112
0.07163928632847712,-7844
0.07166196416523828,-7626
0.07168464200199942,-7568
0.07170731983876058,-7614
0.07172999767552173,-7664
0.07175267551228287,-7657
0.07177535334904403,-7447
0.07179803118580518,-6784
0.07182070902256633,-6819
0.07184338685932748,-6993
0.07186606469608864,-7190
0.07188874253284978,-6992
0.07191142036961094,-6646
0.07193409820637209,-6186
0.07195677604313323,-6056
0.07197945387989439,-6207
0.07200213171665554,-6532
0.0720248095534167,-6514
0.07204748739017784,-6390
0.072070165226939,-6115
0.07209284306370015,-6184
0.0721155209004613,-6445
0.07213819873722245,-6678
0.0721608765739836,-6476
0.07218355441074475,-5888
0.0722062322475059,-5422
0.07222891008426706,-5302
0.0722515879210282,-5179
0.07227426575778936,-4790
0.07229694359455051,-3626
0.07231962143131167,-2053
0.07234229926807281,-548
0.07236497710483396,890
0.07238765494159512,2122
0.07241033277835626,3338
0.07243301061511742,4376
0.07245568845187857,4963
0.07247836628863973,5583
0.07250104412540087,5820
0.07252372196216203,5384
0.07254639979892318,4018
0.07256907763568432,2214
0.07259175547244548,148
0.07261443330920662,-1924
0.07263711114596778,-4589
0.07265978898272893,-6960
0.07268246681949009,-8224
0.07270514465625123,-9088
0.07272782249301239,-9448
0.07275050032977354,-9122
0.07277317816653468,-9184
0.07279585600329584,-9304
0.07281853384005699,-9513
0.07284121167681815,-9735
0.07286388951357929,-9748
0.07288656735034045,-9268
0.0729092451871016,-9169
0.07293192302386274,-9380
0.0729546008606239,-9653
0.07297727869738505,-9670
0.0729999565341462,-9406
0.07302263437090735,-9130
0.07304531220766851,-9101
0.07306799004442965,-9148
0.07309066788119081,-9761
0.07311334571795196,-9922
0.0731360235547131,-9668
0.07315870139147426,-9492
0.07318137922823541,-9456
0.07320405706499657,-9384
0.07322673490175771,-9538
0.07324941273851887,-9420
0.07327209057528002,-9002
0.07329476841204118,-8582
0.07331744624880232,-8454
0.07334012408556347,-8148
0.07336280192232462,-8204
0.07338547975908577,-8034
0.07340815759584693,-7789
0.07343083543260807,-7796
0.07345351326936923,-7470
0.07347619110613038,-7204
0.07349886894289154,-6311
0.07352154677965268,-5745
0.07354422461641383,-4624
0.07356690245317499,-3207
0.07358958028993613,-2306
0.07361225812669729,-1556
0.07363493596345844,-832
0.0736576138002196,-16
0.07368029163698074,914
0.0737029694737419,1882
0.07372564731050305,1478
0.07374832514726419,665
0.07377100298402535,-976
0.0737936808207865,-2790
0.07381635865754765,-4164
0.0738390364943088,-5274
0.07386171433106996,-6144
0.0738843921678311,-6682
0.07390707000459226,-7296
0.07392974784135341,-7221
0.07395242567811455,-6540
0.07397510351487571,-5827
0.07399778135163686,-5394
0.07402045918839802,-5476
0.07404313702515916,-6036
0.07406581486192032,-6016
0.07408849269868147,-5790
0.07411117053544262,-5650
0.07413384837220377,-5584
0.07415652620896492,-5832
0.07417920404572607,-5886
0.07420188188248722,-5583
0.07422455971924838,-5334
0.07424723755600952,-4868
0.07426991539277068,-4703
0.07429259322953183,-4683
0.07431527106629297,-4534
0.07433794890305413,-4419
0.07436062673981528,-4098
0.07438330457657644,-4168
0.07440598241333758,-4236
0.07442866025009874,-4490
0.07445133808685989,-4890
0.07447401592362105,-4822
0.07449669376038219,-4636
0.07451937159714334,-4457
0.0745420494339045,-4620
0.07456472727066564,-4906
0.0745874051074268,-5158
0.07461008294418794,-5262
0.0746327607809491,-5180
0.07465543861771025,-5084
0.07467811645447141,-5350
0.07470079429123255,-5730
0.0747234721279937,-6137
0.07474614996475486,-6188
0.074768827801516,-6277
0.07479150563827716,-6169
0.0748141834750383,-6159
0.07483686131179947,-6610
0.07485953914856061,-7106
0.07488221698532177,-7265
0.07490489482208292,-7284
0.07492757265884406,-7330
0.07495025049560522,-7198
0.07497292833236636,-7409
0.07499560616912752,-7672
0.07501828400588867,-7936
0.07504096184264983,-7892
0.07506363967941097,-7692
0.07508631751617213,-7544
0.07510899535293328,-7658
0.07513167318969442,-7879
0.07515435102645558,-7820
0.07517702886321673,-7218
0.07519970669997789,-6896
0.07522238453673903,-6838
0.07524506237350019,-6949
0.07526774021026134,-7306
0.0752904180470225,-7408
0.07531309588378364,-7154
0.07533577372054479,-6924
0.07535845155730594,-7108
0.07538112939406709,-7108
0.07540380723082825,-7237
0.0754264850675894,-7282
0.07544916290435055,-7188
0.0754718407411117,-6805
0.07549451857787286,-6734
0.075517196414634,-7000
0.07553987425139515,-7222
0.0755625520881563,-7518
0.07558522992491745,-7440
0.07560790776167861,-7068
0.07563058559843976,-7225
0.07565326343520092,-7170
0.07567594127196206,-7056
0.0756986191087232,-7122
0.07572129694548436,-7047
0.07574397478224551,-6782
0.07576665261900667,-6554
0.07578933045576781,-6468
0.07581200829252897,-6568
0.07583468612929012,-6488
0.07585736396605128,-6247
0.07588004180281242,-5695
0.07590271963957357,-5584
0.07592539747633473,-5803
0.07594807531309587,-5970
0.07597075314985703,-5822
0.07599343098661818,-5738
0.07601610882337934,-5360
0.07603878666014048,-5340
0.07606146449690164,-5468
0.07608414233366279,-5706
0.07610682017042393,-5712
0.07612949800718509,-5687
0.07615217584394623,-5320
0.0761748536807074,-5652
0.07619753151746854,-6154
0.0762202093542297,-6144
0.07624288719099084,-6454
0.076265565027752,-6252
0.07628824286451315,-6109
0.07631092070127429,-6438
0.07633359853803545,-6632
0.0763562763747966,-6960
0.07637895421155776,-6804
0.0764016320483189,-6686
0.07642430988508006,-6576
0.0764469877218412,-6508
0.07646966555860236,-6529
0.07649234339536351,-6508
0.07651502123212466,-6112
0.07653769906888581,-5662
0.07656037690564696,-5174
0.07658305474240812,-4898
0.07660573257916926,-5166
0.07662841041593042,-5466
0.07665108825269157,-6174
0.07667376608945273,-6298
0.07669644392621387,-6882
0.07671912176297502,-7582
0.07674179959973618,-8073
0.07676447743649732,-8267
0.07678715527325848,-8374
0.07680983311001963,-8401
0.07683251094678079,-7984
0.07685518878354193,-8165
0.07687786662030309,-8270
0.07690054445706423,-8496
0.07692322229382538,-8526
0.07694590013058654,-8592
0.07696857796734768,-8515
0.07699125580410884,-8424
0.07701393364086999,-8724
0.07703661147763115,-8982
0.07705928931439229,-9026
0.07708196715115344,-8793
0.0771046449879146,-8626
0.07712732282467574,-8634
0.0771500006614369,-8862
0.07717267849819805,-9004
0.0771953563349592,-8824
0.07721803417172035,-8826
0.07724071200848151,-8606
0.07726338984524266,-8606
0.0772860676820038,-8572
0.07730874551876496,-8704
0.0773314233555261,-8628
0.07735410119228726,-8408
0.07737677902904841,-7977
0.07739945686580957,-8043
0.07742213470257071,-8174
0.07744481253933187,-8540
0.07746749037609302,-8408
0.07749016821285416,-8455
0.07751284604961532,-8077
0.07753552388637647,-8204
0.07755820172313763,-8421
0.07758087955989877,-8569
0.07760355739665993,-8483
0.07762623523342108,-8337
0.07764891307018223,-7828
0.07767159090694338,-7938
0.07769426874370453,-8186
0.07771694658046568,-8618
0.07773962441722683,-8584
0.07776230225398799,-8458
0.07778498009074913,-8438
0.0778076579275103,-8350
0.07783033576427144,-8452
0.0778530136010326,-8796
0.07787569143779374,-8784
0.07789836927455489,-8848
0.07792104711131605,-8657
0.07794372494807719,-8972
0.07796640278483835,-9094
0.0779890806215995,-9352
0.07801175845836066,-9168
0.0780344362951218,-9008
0.07805711413188296,-8730
0.0780797919686441,-8578
0.07810246980540525,-8984
0.07812514764216641,-9150
0.07814782547892755,-9094
0.07817050331568871,-8852
0.07819318115244986,-8462
0.07821585898921102,-8346
0.07823853682597216,-8558
0.07826121466273332,-8644
0.07828389249949447,-8658
0.07830657033625561,-8266
0.07832924817301677,-7926
0.07835192600977792,-7677
0.07837460384653908,-7314
0.07839728168330022,-7248
0.07841995952006138,-6792
0.07844263735682253,-6068
0.07846531519358367,-5536
0.07848799303034483,-4360
0.07851067086710597,-3274
0.07853334870386713,-1997
0.07855602654062828,-545
0.07857870437738944,1113
0.07860138221415058,3180
0.07862406005091174,5353
0.07864673788767289,6631
0.07866941572443403,7255
0.07869209356119519,8273
0.07871477139795634,9146
0.0787374492347175,9078
0.07876012707147864,7828
0.0787828049082398,5668
0.07880548274500095,2898
0.0788281605817621,-450
0.07885083841852325,-2765
0.0788735162552844,-4220
0.07889619409204555,-4826
0.0789188719288067,-5426
0.07894154976556786,-6146
0.078964227602329,-6402
0.07898690543909016,-6302
0.07900958327585131,-5957
0.07903226111261247,-6080
0.07905493894937361,-6452
0.07907761678613476,-6933
0.07910029462289592,-7122
0.07912297245965706,-7153
0.07914565029641822,-7311
0.07916832813317937,-7491
0.07919100596994053,-7668
0.07921368380670167,-8200
0.07923636164346283,-8389
0.07925903948022398,-8448
0.07928171731698512,-8364
0.07930439515374628,-8268
0.07932707299050742,-8486
0.07934975082726858,-8934
0.07937242866402973,-9028
0.07939510650079089,-9036
0.07941778433755203,-8977
0.07944046217431319,-9185
0.07946314001107434,-9280
0.07948581784783548,-9614
0.07950849568459664,-9475
0.07953117352135779,-9357
0.07955385135811895,-9046
0.07957652919488009,-8911
0.07959920703164125,-9068
0.0796218848684024,-9238
0.07964456270516355,-9102
0.0796672405419247,-9063
0.07968991837868585,-8925
0.079712596215447,-8900
0.07973527405220815,-8890
0.07975795188896931,-9051
0.07978062972573045,-9045
0.07980330756249161,-8844
0.07982598539925276,-8594
0.0798486632360139,-8607
0.07987134107277506,-8682
0.07989401890953621,-8954
0.07991669674629737,-8644
0.07993937458305851,-8525
0.07996205241981967,-8322
0.07998473025658082,-8094
0.08000740809334198,-8264
0.08003008593010312,-8112
0.08005276376686427,-8118
0.08007544160362542,-7892
0.08009811944038657,-7627
0.08012079727714773,-7522
0.08014347511390887,-7422
0.08016615295067003,-7318
0.08018883078743118,-6897
0.08021150862419234,-6866
0.08023418646095348,-6710
0.08025686429771463,-6654
0.08027954213447579,-6604
0.08030221997123693,-6652
0.08032489780799809,-6560
0.08034757564475924,-6310
0.0803702534815204,-6096
0.08039293131828154,-5880
0.0804156091550427,-6126
0.08043828699180385,-5975
0.08046096482856499,-5892
0.08048364266532615,-5595
0.0805063205020873,-5405
0.08052899833884845,-5397
0.0805516761756096,-5497
0.08057435401237076,-5592
0.0805970318491319,-5320
0.08061970968589306,-5136
0.08064238752265421,-4938
0.08066506535941535,-4874
0.08068774319617651,-5135
0.08071042103293766,-5148
0.08073309886969882,-5098
0.08075577670645996,-4940
0.08077845454322112,-4758
0.08080113237998227,-4732
0.08082381021674342,-4978
0.08084648805350457,-5266
0.08086916589026572,-5160
0.08089184372702687,-5260
0.08091452156378802,-4908
0.08093719940054918,-4915
0.08095987723731032,-5148
0.08098255507407148,-5388
0.08100523291083263,-5476
0.08102791074759379,-5419
0.08105058858435493,-5260
0.08107326642111608,-5320
0.08109594425787724,-5643
0.08111862209463838,-5694
0.08114129993139954,-5720
0.08116397776816069,-5503
0.08118665560492185,-5554
0.08120933344168299,-5594
0.08123201127844414,-5668
0.0812546891152053,-5831
0.08127736695196644,-5971
0.0813000447887276,-5944
0.08132272262548874,-6038
0.0813454004622499,-6116
0.08136807829901105,-6384
0.08139075613577221,-6842
0.08141343397253335,-6823
0.0814361118092945,-6524
0.08145878964605566,-6104
0.0814814674828168,-5927
0.08150414531957796,-5845
0.0815268231563391,-5676
0.08154950099310027,-5225
0.08157217882986141,-4818
0.08159485666662257,-4559
0.08161753450338372,-4642
0.08164021234014486,-5462
0.08166289017690602,-6374
0.08168556801366716,-6958
0.08170824585042832,-7512
0.08173092368718947,-7724
0.08175360152395063,-8122
0.08177627936071177,-8286
0.08179895719747293,-8560
0.08182163503423408,-8184
0.08184431287099522,-7807
0.08186699070775638,-7686
0.08188966854451753,-7558
0.08191234638127869,-7670
0.08193502421803983,-7780
0.08195770205480099,-7802
0.08198037989156214,-7768
0.0820030577283233,-7513
0.08202573556508444,-7718
0.08204841340184559,-7691
0.08207109123860674,-8211
0.08209376907536789,-8074
0.08211644691212905,-8160
0.0821391247488902,-7922
0.08216180258565135,-7854
0.0821844804224125,-8098
0.08220715825917366,-8534
0.0822298360959348,-8498
0.08225251393269595,-8402
0.0822751917694571,-8038
0.08229786960621825,-8052
0.08232054744297941,-8138
0.08234322527974056,-8170
0.08236590311650172,-8258
0.08238858095326286,-7785
0.08241125879002402,-7260
0.08243393662678516,-7162
0.08245661446354631,-7202
0.08247929230030747,-7414
0.08250197013706861,-6990
0.08252464797382977,-6318
0.08254732581059092,-5351
0.08257000364735208,-4250
0.08259268148411322,-3472
0.08261535932087437,-2527
0.08263803715763553,-1305
0.08266071499439667,-114
0.08268339283115783,990
0.08270607066791898,1838
0.08272874850468014,2042
0.08275142634144128,812
0.08277410417820244,-744
0.08279678201496359,-2662
0.08281945985172473,-4360
0.08284213768848589,-5531
0.08286481552524703,-6588
0.0828874933620082,-7342
0.08291017119876934,-7702
0.0829328490355305,-7368
0.08295552687229164,-6649
0.0829782047090528,-6529
0.08300088254581395,-6688
0.08302356038257509,-6996
0.08304623821933625,-7100
0.0830689160560974,-6961
0.08309159389285856,-6954
0.0831142717296197,-6822
0.08313694956638086,-7178
0.083159627403142,-7562
0.08318230523990316,-7474
0.08320498307666431,-7138
0.08322766091342546,-6790
0.08325033875018661,-6769
0.08327301658694776,-7096
0.08329569442370892,-7469
0.08331837226047006,-7162
0.08334105009723122,-7236
0.08336372793399237,-6836
0.08338640577075353,-6920
0.08340908360751467,-7042
0.08343176144427582,-7241
0.08345443928103698,-7146
0.08347711711779812,-7308
0.08349979495455928,-7005
0.08352247279132043,-6966
0.08354515062808159,-7143
0.08356782846484273,-7460
0.08359050630160389,-7466
0.08361318413836503,-7238
0.08363586197512618,-6936
0.08365853981188734,-6998
0.08368121764864848,-7174
0.08370389548540964,-7397
0.08372657332217079,-7247
0.08374925115893195,-7036
0.08377192899569309,-6804
0.08379460683245425,-6957
0.0838172846692154,-7022
0.08383996250597654,-7123
0.0838626403427377,-6981
0.08388531817949885,-6738
0.08390799601626,-6593
0.08393067385302115,-6545
0.08395335168978231,-6622
0.08397602952654346,-6863
0.0839987073633046,-6838
0.08402138520006576,-6798
0.0840440630368269,-6533
0.08406674087358806,-6667
0.08408941871034921,-6834
0.08411209654711037,-7024
0.08413477438387151,-7028
0.08415745222063267,-7034
0.08418013005739382,-6718
0.08420280789415496,-6878
0.08422548573091612,-7052
0.08424816356767727,-7174
0.08427084140443843,-6957
0.08429351924119957,-6854
0.08431619707796073,-6666
0.08433887491472188,-6746
0.08436155275148303,-6840
0.08438423058824418,-6950
0.08440690842500533,-6708
0.08442958626176648,-6287
0.08445226409852763,-6232
0.08447494193528879,-6472
0.08449761977204993,-6622
0.08452029760881109,-6810
0.08454297544557224,-6711
0.0845656532823334,-6460
0.08458833111909454,-6321
0.08461100895585569,-6190
0.08463368679261685,-6362
0.08465636462937799,-6464
0.08467904246613915,-6297
0.0847017203029003,-6332
0.08472439813966146,-6044
0.0847470759764226,-5926
0.08476975381318376,-6086
0.0847924316499449,-6193
0.08481510948670605,-6095
0.08483778732346721,-5776
0.08486046516022835,-5561
0.08488314299698951,-5531
0.08490582083375066,-5650
0.08492849867051182,-5896
0.08495117650727296,-5596
0.08497385434403412,-5475
0.08499653218079527,-4978
0.08501921001755641,-4992
0.08504188785431757,-5190
0.08506456569107872,-5418
0.08508724352783988,-5128
0.08510992136460102,-4999
0.08513259920136218,-4883
0.08515527703812333,-5056
0.08517795487488448,-4932
0.08520063271164563,-5280
0.08522331054840677,-5222
0.08524598838516793,-5071
0.08526866622192908,-4905
0.08529134405869024,-4889
0.08531402189545138,-5022
0.08533669973221254,-4992
0.08535937756897369,-5020
0.08538205540573483,-4680
0.08540473324249599,-4728
0.08542741107925714,-4700
0.0854500889160183,-4900
0.08547276675277944,-5114
0.0854954445895406,-5128
0.08551812242630175,-4936
0.0855408002630629,-4809
0.08556347809982405,-5034
0.0855861559365852,-5231
0.08560883377334635,-5758
0.0856315116101075,-5572
0.08565418944686866,-5466
0.0856768672836298,-5177
0.08569954512039096,-5224
0.08572222295715211,-5612
0.08574490079391327,-6016
0.08576757863067441,-6384
0.08579025646743556,-6301
0.08581293430419672,-5800
0.08583561214095786,-5712
0.08585828997771902,-5314
0.08588096781448017,-5471
0.08590364565124133,-5143
0.08592632348800247,-4455
0.08594900132476363,-3122
0.08597167916152477,-1455
0.08599435699828592,-22
0.08601703483504708,1309
0.08603971267180822,3168
0.08606239050856938,5308
0.08608506834533053,6803
0.08610774618209169,8334
0.08613042401885283,9426
0.08615310185561399,10254
0.08617577969237514,10207
0.08619845752913628,8941
0.08622113536589744,6565
0.08624381320265859,3248
0.08626649103941975,-260
0.08628916887618089,-3393
0.08631184671294205,-5552
0.0863345245497032,-6932
0.08635720238646435,-7542
0.0863798802232255,-8347
0.08640255805998664,-8794
0.0864252358967478,-8638
0.08644791373350895,-8056
0.08647059157027011,-7720
0.08649326940703125,-7868
0.08651594724379241,-7648
0.08653862508055356,-8114
0.08656130291731472,-8578
0.08658398075407586,-8426
0.08660665859083701,-8428
0.08662933642759817,-8468
0.08665201426435931,-8537
0.08667469210112047,-8488
0.08669736993788162,-8501
0.08672004777464278,-8326
0.08674272561140392,-7837
0.08676540344816507,-7088
0.08678808128492622,-6464
0.08681075912168737,-5890
0.08683343695844853,-5766
0.08685611479520967,-5063
0.08687879263197083,-4534
0.08690147046873198,-4518
0.08692414830549314,-4938
0.08694682614225428,-5797
0.08696950397901543,-6774
0.08699218181577659,-7182
0.08701485965253773,-7380
0.08703753748929889,-7362
0.08706021532606004,-7377
0.0870828931628212,-7414
0.08710557099958234,-7394
0.0871282488363435,-7104
0.08715092667310465,-6886
0.08717360450986579,-6380
0.08719628234662695,-6314
0.0872189601833881,-6448
0.08724163802014925,-6646
0.0872643158569104,-6571
0.08728699369367156,-6424
0.0873096715304327,-6105
0.08733234936719386,-5823
0.08735502720395501,-5946
0.08737770504071615,-5954
0.08740038287747731,-5773
0.08742306071423846,-5404
0.08744573855099962,-5274
0.08746841638776076,-5249
0.08749109422452192,-5132
0.08751377206128307,-5174
0.08753644989804422,-5084
0.08755912773480537,-4994
0.08758180557156652,-4725
0.08760448340832767,-4508
0.08762716124508882,-4505
0.08764983908184998,-4542
0.08767251691861112,-4254
0.08769519475537228,-4118
0.08771787259213343,-3901
0.08774055042889459,-4158
0.08776322826565573,-4462
0.08778590610241688,-4470
0.08780858393917804,-4478
0.08783126177593918,-4480
0.08785393961270034,-4260
0.08787661744946149,-4470
0.08789929528622265,-4858
0.08792197312298379,-5104
0.08794465095974495,-5074
0.0879673287965061,-5142
0.08799000663326724,-5202
0.0880126844700284,-5388
0.08803536230678954,-5630
0.0880580401435507,-5713
0.08808071798031185,-5686
0.08810339581707301,-5538
0.08812607365383415,-5478
0.0881487514905953,-5471
0.08817142932735646,-5688
0.0881941071641176,-6004
0.08821678500087876,-6206
0.0882394628376399,-5932
0.08826214067440107,-5692
0.08828481851116221,-5588
0.08830749634792337,-5698
0.08833017418468452,-6051
0.08835285202144566,-5877
0.08837552985820682,-5868
0.08839820769496796,-5784
0.08842088553172912,-6002
0.08844356336849027,-6246
0.08846624120525143,-6589
0.08848891904201257,-6793
0.08851159687877373,-6778
0.08853427471553488,-6526
0.08855695255229602,-6846
0.08857963038905718,-7021
0.08860230822581833,-7418
0.08862498606257949,-7522
0.08864766389934063,-7295
0.08867034173610179,-7293
0.08869301957286294,-7524
0.0887156974096241,-7530
0.08873837524638524,-7782
0.08876105308314639,-7558
0.08878373091990754,-7485
0.08880640875666869,-7555
0.08882908659342985,-7607
0.088851764430191,-7877
0.08887444226695215,-8171
0.0888971201037133,-8114
0.08891979794047446,-7911
0.0889424757772356,-7832
0.08896515361399675,-7460
0.0889878314507579,-7771
0.08901050928751905,-7734
0.08903318712428021,-7580
0.08905586496104136,-7430
0.08907854279780252,-7341
0.08910122063456366,-7307
0.08912389847132482,-7366
0.08914657630808596,-7624
0.08916925414484711,-7786
0.08919193198160827,-7336
0.08921460981836941,-6978
0.08923728765513057,-7148
0.08925996549189172,-6957
0.08928264332865288,-7260
0.08930532116541402,-7054
0.08932799900217518,-6991
0.08935067683893633,-6634
0.08937335467569747,-6529
0.08939603251245863,-6372
0.08941871034921978,-6872
0.08944138818598094,-6822
0.08946406602274208,-6838
0.08948674385950324,-6454
0.08950942169626439,-6214
0.08953209953302553,-6036
0.08955477736978669,-6420
0.08957745520654783,-6016
0.089600133043309,-5500
0.08962281088007014,-5051
0.0896454887168313,-5168
0.08966816655359244,-4935
0.0896908443903536,-5016
0.08971352222711475,-4695
0.08973620006387589,-4402
0.08975887790063705,-4208
0.0897815557373982,-4130
0.08980423357415936,-4269
0.0898269114109205,-4190
0.08984958924768166,-3820
0.0898722670844428,-3664
0.08989494492120396,-3604
0.08991762275796511,-3684
0.08994030059472626,-4091
0.08996297843148741,-4524
0.08998565626824856,-4523
0.09000833410500972,-4418
0.09003101194177086,-4475
0.09005368977853202,-4790
0.09007636761529317,-5063
0.09009904545205433,-5573
0.09012172328881547,-5640
0.09014440112557662,-5729
0.09016707896233778,-5621
0.09018975679909892,-5712
0.09021243463586008,-6094
0.09023511247262123,-6456
0.09025779030938239,-6469
0.09028046814614353,-6491
0.09030314598290469,-6320
0.09032582381966583,-5952
0.09034850165642698,-6004
0.09037117949318814,-6245
0.09039385732994928,-6056
0.09041653516671044,-5888
0.09043921300347159,-5754
0.09046189084023275,-6056
0.09048456867699389,-6370
0.09050724651375505,-6660
0.0905299243505162,-6574
0.09055260218727734,-6404
0.0905752800240385,-6103
0.09059795786079965,-6170
0.0906206356975608,-6450
0.09064331353432195,-6702
0.09066599137108311,-6653
0.09068866920784426,-6574
0.09071134704460541,-6615
0.09073402488136656,-6743
0.0907567027181277,-7134
0.09077938055488886,-7408
0.09080205839165001,-7518
0.09082473622841117,-7510
0.09084741406517231,-7626
0.09087009190193347,-7700
0.09089276973869462,-8162
0.09091544757545576,-8353
0.09093812541221692,-8471
0.09096080324897807,-8329
0.09098348108573923,-7916
0.09100615892250037,-7555
0.09102883675926153,-7658
0.09105151459602268,-7747
0.09107419243278383,-7926
0.09109687026954498,-7970
0.09111954810630613,-7617
0.09114222594306728,-7684
0.09116490377982843,-7826
0.09118758161658959,-8264
0.09121025945335073,-7905
0.09123293729011189,-7618
0.09125561512687304,-7544
0.0912782929636342,-7502
0.09130097080039534,-7820
0.09132364863715649,-7972
0.09134632647391765,-7808
0.09136900431067879,-7517
0.09139168214743995,-7274
0.0914143599842011,-7100
0.09143703782096226,-7528
0.0914597156577234,-7808
0.09148239349448456,-7508
0.0915050713312457,-7224
0.09152774916800685,-6924
0.09155042700476801,-6924
0.09157310484152915,-6910
0.09159578267829031,-7069
0.09161846051505146,-6604
0.09164113835181262,-6313
0.09166381618857376,-5488
0.09168649402533492,-5364
0.09170917186209607,-5345
0.09173184969885721,-5096
0.09175452753561837,-4451
0.09177720537237952,-3004
0.09179988320914068,-1478
0.09182256104590182,-232
0.09184523888266298,1276
0.09186791671942413,2578
0.09189059455618528,4010
0.09191327239294643,5742
0.09193595022970757,7202
0.09195862806646873,7763
0.09198130590322988,6646
0.09200398373999104,4733
0.09202666157675218,2216
0.09204933941351334,-352
0.09207201725027449,-2649
0.09209469508703565,-4318
0.09211737292379679,-5707
0.09214005076055794,-6752
0.0921627285973191,-6986
0.09218540643408024,-6667
0.0922080842708414,-6215
0.09223076210760255,-6180
0.0922534399443637,-6546
0.09227611778112485,-6792
0.092298795617886,-7059
0.09232147345464715,-7081
0.0923441512914083,-6904
0.09236682912816946,-7108
0.0923895069649306,-7380
0.09241218480169176,-7562
0.09243486263845291,-7682
0.09245754047521407,-7777
0.09248021831197521,-7712
0.09250289614873636,-7664
0.09252557398549752,-8064
0.09254825182225866,-8072
0.09257092965901982,-8060
0.09259360749578097,-7828
0.09261628533254213,-7590
0.09263896316930327,-7708
0.09266164100606443,-7854
0.09268431884282557,-7934
0.09270699667958672,-7983
0.09272967451634788,-7650
0.09275235235310902,-7554
0.09277503018987018,-7516
0.09279770802663133,-7583
0.09282038586339249,-7556
0.09284306370015363,-7301
0.09286574153691479,-6806
0.09288841937367594,-6408
0.09291109721043708,-5708
0.09293377504719824,-5466
0.09295645288395939,-5129
0.09297913072072055,-4487
0.09300180855748169,-3211
0.09302448639424285,-1568
0.093047164231004,5
0.09306984206776515,1040
0.0930925199045263,2664
0.09311519774128744,4368
0.0931378755780486,6260
0.09316055341480975,7582
0.09318323125157091,8665
0.09320590908833205,9320
0.09322858692509321,9649
0.09325126476185436,8784
0.09327394259861552,6592
0.09329662043537666,3828
0.09331929827213781,318
0.09334197610889897,-2592
0.09336465394566011,-4485
0.09338733178242127,-5056
0.09341000961918242,-5677
0.09343268745594357,-5385
0.09345536529270472,-5202
0.09347804312946588,-4924
0.09350072096622702,-5241
0.09352339880298817,-4992
0.09354607663974933,-4928
0.09356875447651047,-4778
0.09359143231327163,-4756
0.09361411015003278,-4668
0.09363678798679394,-4740
0.09365946582355508,-4640
0.09368214366031623,-4346
0.09370482149707739,-3999
0.09372749933383853,-4160
0.09375017717059969,-4071
0.09377285500736084,-3953
0.093795532844122,-3591
0.09381821068088314,-3498
0.0938408885176443,-3296
0.09386356635440544,-3046
0.09388624419116659,-3066
0.09390892202792775,-3464
0.0939315998646889,-3144
0.09395427770145005,-2974
0.0939769555382112,-2454
0.09399963337497236,-2434
0.0940223112117335,-2274
0.09404498904849466,-2232
0.09406766688525581,-1948
0.09409034472201695,-1918
0.09411302255877811,-1596
0.09413570039553926,-1734
0.09415837823230042,-2100
0.09418105606906156,-2604
0.09420373390582272,-2820
0.09422641174258387,-2865
0.09424908957934502,-2806
0.09427176741610617,-3115
0.09429444525286731,-3328
0.09431712308962847,-3900
0.09433980092638962,-4188
0.09436247876315078,-4222
0.09438515659991192,-4092
0.09440783443667308,-4250
0.09443051227343423,-4655
0.09445319011019539,-5000
0.09447586794695653,-5148
0.09449854578371768,-5136
0.09452122362047884,-5292
0.09454390145723998,-5188
0.09456657929400114,-5417
0.09458925713076229,-5916
0.09461193496752345,-6088
0.09463461280428459,-6287
0.09465729064104575,-6338
0.0946799684778069,-6381
0.09470264631456804,-6584
0.0947253241513292,-6695
0.09474800198809034,-6822
0.0947706798248515,-6580
0.09479335766161265,-6450
0.09481603549837381,-6402
0.09483871333513495,-6727
0.09486139117189611,-6676
0.09488406900865726,-6648
0.0949067468454184,-6035
0.09492942468217956,-5840
0.0949521025189407,-5824
0.09497478035570187,-5780
0.09499745819246301,-5936
0.09502013602922417,-5532
0.09504281386598532,-5325
0.09506549170274646,-4978
0.09508816953950762,-4838
0.09511084737626876,-4538
0.09513352521302992,-4623
0.09515620304979107,-4485
0.09517888088655223,-4320
0.09520155872331337,-4082
0.09522423656007453,-4015
0.09524691439683568,-4271
0.09526959223359682,-4768
0.09529227007035798,-4596
0.09531494790711913,-4677
0.09533762574388029,-5056
0.09536030358064143,-5174
0.09538298141740259,-5542
0.09540565925416374,-5786
0.0954283370909249,-5738
0.09545101492768604,-5912
0.09547369276444718,-5830
0.09549637060120834,-6152
0.09551904843796949,-6572
0.09554172627473065,-6617
0.0955644041114918,-6300
0.09558708194825295,-6202
0.0956097597850141,-5950
0.09563243762177526,-5866
0.0956551154585364,-6356
0.09567779329529755,-6337
0.0957004711320587,-6183
0.09572314896881985,-5670
0.09574582680558101,-5554
0.09576850464234216,-5527
0.09579118247910332,-5414
0.09581386031586446,-5663
0.09583653815262562,-5465
0.09585921598938676,-5301
0.09588189382614791,-4871
0.09590457166290907,-4868
0.09592724949967021,-4922
0.09594992733643137,-5038
0.09597260517319252,-4805
0.09599528300995368,-4748
0.09601796084671482,-4586
0.09604063868347598,-4490
0.09606331652023713,-4618
0.09608599435699827,-4748
0.09610867219375943,-4318
0.09613135003052058,-4015
0.09615402786728174,-3740
0.09617670570404288,-3481
0.09619938354080404,-3507
0.09622206137756519,-3593
0.09624473921432634,-3660
0.09626741705108749,-3693
0.09629009488784863,-3482
0.0963127727246098,-3734
0.09633545056137094,-4205
0.0963581283981321,-4492
0.09638080623489324,-4751
0.0964034840716544,-4854
0.09642616190841555,-5142
0.09644883974517669,-5404
0.09647151758193785,-6058
0.096494195418699,-6390
0.09651687325546016,-6668
0.0965395510922213,-6876
0.09656222892898246,-6955
0.0965849067657436,-7102
0.09660758460250476,-7319
0.09663026243926591,-7386
0.09665294027602706,-7135
0.09667561811278821,-7042
0.09669829594954936,-6578
0.09672097378631052,-6415
0.09674365162307166,-6531
0.09676632945983282,-6833
0.09678900729659397,-6974
0.09681168513335513,-6804
0.09683436297011627,-6704
0.09685704080687742,-6492
0.09687971864363858,-6364
0.09690239648039972,-6132
0.09692507431716088,-5688
0.09694775215392203,-5247
0.09697042999068319,-4630
0.09699310782744433,-4334
0.09701578566420549,-4358
0.09703846350096663,-4456
0.09706114133772778,-4770
0.09708381917448894,-5341
0.09710649701125008,-6046
0.09712917484801124,-6664
0.09715185268477239,-7390
0.09717453052153355,-7752
0.09719720835829469,-7518
0.09721988619505585,-7304
0.097242564031817,-6884
0.09726524186857814,-6908
0.0972879197053393,-6970
0.09731059754210045,-7066
0.0973332753788616,-6854
0.09735595321562275,-6840
0.09737863105238391,-6749
0.09740130888914506,-7078
0.09742398672590621,-7318
0.09744666456266736,-7100
0.0974693423994285,-6865
0.09749202023618966,-6836
0.09751469807295081,-6790
0.09753737590971197,-6832
0.09756005374647311,-6960
0.09758273158323427,-7150
0.09760540941999542,-7010
0.09762808725675658,-6894
0.09765076509351772,-6742
0.09767344293027887,-6850
0.09769612076704003,-6991
0.09771879860380117,-7000
0.09774147644056233,-6824
0.09776415427732348,-6616
0.09778683211408463,-6490
0.09780950995084578,-6536
0.09783218778760693,-6903
0.09785486562436808,-6762
0.09787754346112923,-6440
0.09790022129789039,-6324
0.09792289913465153,-6087
0.09794557697141269,-6306
0.09796825480817384,-6499
0.097990932644935,-6498
0.09801361048169614,-6384
0.09803628831845729,-5982
0.09805896615521845,-5894
0.09808164399197959,-5740
0.09810432182874075,-5852
0.0981269996655019,-5928
0.09814967750226306,-5603
0.0981723553390242,-5062
0.09819503317578536,-4504
0.0982177110125465,-4200
0.09824038884930765,-3897
0.09826306668606881,-3861
0.09828574452282995,-3460
0.09830842235959111,-3165
0.09833110019635226,-2920
0.09835377803311342,-2653
0.09837645586987456,-2774
0.09839913370663572,-2513
0.09842181154339687,-2214
0.09844448938015801,-1719
0.09846716721691917,-1709
0.09848984505368032,-1247
0.09851252289044148,-584
0.09853520072720262,220
0.09855787856396378,1536
0.09858055640072493,2982
0.09860323423748608,4403
0.09862591207424723,6202
0.09864858991100837,7706
0.09867126774776953,8104
0.09869394558453068,8987
0.09871662342129184,10020
0.09873930125805298,10331
0.09876197909481414,9206
0.09878465693157529,6916
0.09880733476833645,3830
0.09883001260509759,470
0.09885269044185874,-2232
0.0988753682786199,-3782
0.09889804611538104,-4688
0.0989207239521422,-5563
0.09894340178890335,-6318
0.0989660796256645,-6560
0.09898875746242565,-6412
0.09901143529918681,-6262
0.09903411313594795,-6281
0.0990567909727091,-6758
0.09907946880947026,-7034
0.0991021466462314,-7182
0.09912482448299256,-6984
0.09914750231975371,-6853
0.09917018015651487,-6982
0.09919285799327601,-7138
0.09921553583003716,-7363
0.09923821366679832,-7271
0.09926089150355946,-6974
0.09928356934032062,-6784
0.09930624717708177,-6918
0.09932892501384293,-7341
0.09935160285060407,-7416
0.09937428068736523,-7238
0.09939695852412637,-7063
0.09941963636088752,-6696
0.09944231419764868,-6608
0.09946499203440982,-6913
0.09948766987117098,-7090
0.09951034770793213,-6846
0.09953302554469329,-6406
0.09955570338145443,-6016
0.09957838121821559,-5660
0.09960105905497674,-6048
0.09962373689173788,-6166
0.09964641472849904,-6100
0.09966909256526019,-5550
0.09969177040202135,-5350
0.09971444823878249,-5065
0.09973712607554365,-5166
0.0997598039123048,-5366
0.09978248174906595,-5075
0.0998051595858271,-5018
0.09982783742258824,-5174
0.0998505152593494,-4976
0.09987319309611055,-5218
0.09989587093287171,-5458
0.09991854876963285,-5046
0.09994122660639401,-4768
0.09996390444315516,-4640
0.09998658227991632,-4480
0.10000926011667746,-4670
0.10003193795343861,-4654
0.10005461579019977,-4594
0.10007729362696091,-4402
0.10009997146372207,-4138
0.10012264930048322,-3948
0.10014532713724437,-4297
0.10016800497400552,-4452
0.10019068281076668,-4244
0.10021336064752782,-3892
0.10023603848428897,-3630
0.10025871632105013,-3152
0.10028139415781127,-3541
0.10030407199457243,-3748
0.10032674983133358,-3428
0.10034942766809474,-3026
0.10037210550485588,-2688
0.10039478334161704,-2456
0.10041746117837819,-2802
0.10044013901513933,-3205
0.10046281685190049,-3236
0.10048549468866164,-3049
0.1005081725254228,-3167
0.10053085036218394,-3580
0.1005535281989451,-3984
0.10057620603570624,-4060
0.10059888387246739,-4200
0.10062156170922855,-4151
0.1006442395459897,-4550
0.10066691738275085,-4617
0.100689595219512,-5134
0.10071227305627316,-5345
0.1007349508930343,-5260
0.10075762872979546,-5340
0.10078030656655661,-5381
0.10080298440331775,-5753
0.10082566224007891,-5985
0.10084834007684006,-6418
0.10087101791360122,-6422
0.10089369575036236,-6328
0.10091637358712352,-6262
0.10093905142388467,-6200
0.10096172926064582,-6328
0.10098440709740697,-6471
0.10100708493416811,-6600
0.10102976277092927,-6342
0.10105244060769042,-6186
0.10107511844445158,-6060
0.10109779628121272,-5883
0.10112047411797388,-5346
0.10114315195473503,-4542
0.10116582979149619,-3672
0.10118850762825733,-2984
0.10121118546501848,-2000
0.10123386330177964,-956
0.10125654113854078,-473
0.10127921897530194,270
0.10130189681206309,1151
0.10132457464882424,1942
0.10134725248558539,2366
0.10136993032234655,1703
0.1013926081591077,510
0.10141528599586884,-1026
0.10143796383263,-2454
0.10146064166939114,-4036
0.1014833195061523,-5306
0.10150599734291345,-6306
0.10152867517967461,-6914
0.10155135301643575,-7152
0.10157403085319691,-7282
0.10159670868995806,-6981
0.1016193865267192,-6830
0.10164206436348036,-6779
0.1016647422002415,-6942
0.10168742003700267,-6922
0.10171009787376381,-6954
0.10173277571052497,-6877
0.10175545354728611,-6994
0.10177813138404727,-7052
0.10180080922080842,-7128
0.10182348705756956,-6942
0.10184616489433072,-6866
0.10186884273109187,-6742
0.10189152056785303,-6940
0.10191419840461417,-6986
0.10193687624137533,-7145
0.10195955407813648,-6707
0.10198223191489762,-6279
0.10200490975165878,-6050
0.10202758758841993,-5609
0.10205026542518109,-5202
0.10207294326194223,-4820
0.10209562109870339,-4062
0.10211829893546454,-3330
0.1021409767722257,-2800
0.10216365460898684,-2765
0.10218633244574798,-3032
0.10220901028250914,-3580
0.10223168811927029,-4180
0.10225436595603145,-4570
0.1022770437927926,-4796
0.10229972162955375,-5208
0.1023223994663149,-5368
0.10234507730307606,-5418
0.1023677551398372,-5150
0.10239043297659835,-4634
0.1024131108133595,-4218
0.10243578865012065,-4058
0.10245846648688181,-4123
0.10248114432364296,-4166
0.10250382216040411,-3976
0.10252649999716526,-3907
0.10254917783392642,-3956
0.10257185567068756,-4038
0.10259453350744871,-4393
0.10261721134420987,-4778
0.10263988918097101,-4941
0.10266256701773217,-4924
0.10268524485449332,-5150
0.10270792269125448,-5474
0.10273060052801562,-6017
0.10275327836477678,-6508
0.10277595620153793,-6602
0.10279863403829907,-6930
0.10282131187506023,-6809
0.10284398971182138,-6788
0.10286666754858254,-7026
0.10288934538534368,-7472
0.10291202322210484,-7379
0.10293470105886598,-7233
0.10295737889562714,-7056
0.10298005673238829,-6740
0.10300273456914943,-7219
0.1030254124059106,-7420
0.10304809024267174,-7634
0.1030707680794329,-7482
0.10309344591619404,-7358
0.1031161237529552,-7366
0.10313880158971635,-7430
0.1031614794264775,-7622
0.10318415726323865,-7402
0.1032068350999998,-7496
0.10322951293676096,-7218
0.1032521907735221,-7054
0.10327486861028326,-7333
0.1032975464470444,-7346
0.10332022428380556,-7055
0.10334290212056671,-6736
0.10336557995732785,-6464
0.10338825779408901,-6434
0.10341093563085016,-6299
0.10343361346761132,-6263
0.10345629130437246,-5959
0.10347896914113362,-5782
0.10350164697789477,-5545
0.10352432481465593,-5404
0.10354700265141707,-5390
0.10356968048817822,-5396
0.10359235832493938,-5216
0.10361503616170052,-5228
0.10363771399846168,-4958
0.10366039183522283,-4695
0.10368306967198399,-4790
0.10370574750874513,-4918
0.10372842534550629,-4964
0.10375110318226743,-4784
0.10377378101902858,-4440
0.10379645885578974,-4196
