1570000,0.21
1570002.778,0.125
1570005.556,0.085
1570008.333,0.09
1570011.111,0.12
1570013.889,0.11
1570016.667,0.11
1570019.444,0.1
1570022.222,0.08
1570025,0.08
1570027.778,0.1
1570030.556,0.125
1570033.333,0.155
1570036.111,0.12
1570038.889,0.06
1570041.667,0
1570044.444,-0.01
1570047.222,-0.015
1570050,-0.02
1570052.778,-0.03
1570055.556,-0.06
1570058.333,-0.12
1570061.111,-0.18
1570063.889,-0.2
1570066.667,-0.245
1570069.444,-0.305
1570072.222,-0.345
1570075,-0.39
1570077.778,-0.44
1570080.556,-0.47
1570083.333,-0.5
1570086.111,-0.555
1570088.889,-0.62
1570091.667,-0.695
1570094.444,-0.705
1570097.222,-0.69
1570100,-0.65
1570102.778,-0.645
1570105.556,-0.64
1570108.333,-0.685
1570111.111,-0.68
1570113.889,-0.64
1570116.667,-0.605
1570119.444,-0.595
1570122.222,-0.62
1570125,-0.625
1570127.778,-0.6
1570130.556,-0.565
1570133.333,-0.55
1570136.111,-0.565
1570138.889,-0.545
1570141.667,-0.53
1570144.444,-0.48
1570147.222,-0.45
1570150,-0.425
1570152.778,-0.405
1570155.556,-0.405
1570158.333,-0.405
1570161.111,-0.34
1570163.889,-0.31
1570166.667,-0.295
1570169.444,-0.305
1570172.222,-0.27
1570175,-0.265
1570177.778,-0.225
1570180.556,-0.185
1570183.333,-0.175
1570186.111,-0.175
1570188.889,-0.155
1570191.667,-0.14
1570194.444,-0.125
1570197.222,-0.12
1570200,-0.13
1570202.778,-0.12
1570205.556,-0.09
1570208.333,-0.045
1570211.111,-0.035
1570213.889,-0.005
1570216.667,0.01
1570219.444,0.01
1570222.222,0.025
1570225,0.03
1570227.778,0.075
1570230.556,0.115
1570233.333,0.13
1570236.111,0.14
1570238.889,0.15
1570241.667,0.19
1570244.444,0.23
1570247.222,0.255
1570250,0.265
1570252.778,0.255
1570255.556,0.23
1570258.333,0.185
1570261.111,0.15
1570263.889,0.11
1570266.667,0.07
1570269.444,0.03
1570272.222,0.01
1570275,0
1570277.778,-0.025
1570280.556,-0.01
1570283.333,-0.015
1570286.111,-0.01
1570288.889,-0.045
1570291.667,-0.08
1570294.444,-0.095
1570297.222,-0.085
1570300,-0.12
1570302.778,-0.165
1570305.556,-0.175
1570308.333,-0.175
1570311.111,-0.155
1570313.889,-0.155
1570316.667,-0.18
1570319.444,-0.21
1570322.222,-0.235
1570325,-0.27
1570327.778,-0.295
1570330.556,-0.32
1570333.333,-0.35
1570336.111,-0.41
1570338.889,-0.47
1570341.667,-0.52
1570344.444,-0.54
1570347.222,-0.57
1570350,-0.62
1570352.778,-0.665
1570355.556,-0.675
1570358.333,-0.675
1570361.111,-0.7
1570363.889,-0.72
1570366.667,-0.715
1570369.444,-0.7
1570372.222,-0.665
1570375,-0.66
1570377.778,-0.67
1570380.556,-0.66
1570383.333,-0.67
1570386.111,-0.69
1570388.889,-0.695
1570391.667,-0.7
1570394.444,-0.675
1570397.222,-0.66
1570400,-0.645
1570402.778,-0.65
1570405.556,-0.615
1570408.333,-0.61
1570411.111,-0.59
1570413.889,-0.56
1570416.667,-0.53
1570419.444,-0.5
1570422.222,-0.49
1570425,-0.47
1570427.778,-0.44
1570430.556,-0.415
1570433.333,-0.385
1570436.111,-0.355
1570438.889,-0.355
1570441.667,-0.32
1570444.444,-0.285
1570447.222,-0.235
1570450,-0.22
1570452.778,-0.215
1570455.556,-0.22
1570458.333,-0.23
1570461.111,-0.205
1570463.889,-0.17
1570466.667,-0.155
1570469.444,-0.12
1570472.222,-0.115
1570475,-0.11
1570477.778,-0.1
1570480.556,-0.075
1570483.333,-0.065
1570486.111,-0.04
1570488.889,-0.025
1570491.667,0
1570494.444,-0.005
1570497.222,0.015
1570500,0.015
1570502.778,0.05
1570505.556,0.06
1570508.333,0.1
1570511.111,0.14
1570513.889,0.165
1570516.667,0.195
1570519.444,0.19
1570522.222,0.195
1570525,0.175
1570527.778,0.15
1570530.556,0.115
1570533.333,0.065
1570536.111,0.015
1570538.889,-0.015
1570541.667,-0.05
1570544.444,-0.055
1570547.222,-0.05
1570550,-0.055
1570552.778,-0.07
1570555.556,-0.08
1570558.333,-0.065
1570561.111,-0.06
1570563.889,-0.075
1570566.667,-0.105
1570569.444,-0.145
1570572.222,-0.19
1570575,-0.21
1570577.778,-0.225
1570580.556,-0.225
1570583.333,-0.235
1570586.111,-0.265
1570588.889,-0.3
1570591.667,-0.32
1570594.444,-0.35
1570597.222,-0.365
1570600,-0.425
1570602.778,-0.485
1570605.556,-0.54
1570608.333,-0.575
1570611.111,-0.6
1570613.889,-0.635
1570616.667,-0.67
1570619.444,-0.71
1570622.222,-0.75
1570625,-0.77
1570627.778,-0.78
1570630.556,-0.8
1570633.333,-0.805
1570636.111,-0.805
1570638.889,-0.81
1570641.667,-0.81
1570644.444,-0.785
1570647.222,-0.775
1570650,-0.785
1570652.778,-0.82
1570655.556,-0.835
1570658.333,-0.84
1570661.111,-0.825
1570663.889,-0.805
1570666.667,-0.81
1570669.444,-0.81
1570672.222,-0.79
1570675,-0.775
1570677.778,-0.74
1570680.556,-0.71
1570683.333,-0.69
1570686.111,-0.7
1570688.889,-0.68
1570691.667,-0.64
1570694.444,-0.61
1570697.222,-0.585
1570700,-0.575
1570702.778,-0.565
1570705.556,-0.555
1570708.333,-0.515
1570711.111,-0.475
1570713.889,-0.455
1570716.667,-0.42
1570719.444,-0.405
1570722.222,-0.4
1570725,-0.39
1570727.778,-0.36
1570730.556,-0.33
1570733.333,-0.31
1570736.111,-0.29
1570738.889,-0.28
1570741.667,-0.26
1570744.444,-0.265
1570747.222,-0.235
1570750,-0.215
1570752.778,-0.2
1570755.556,-0.17
1570758.333,-0.17
1570761.111,-0.16
1570763.889,-0.13
1570766.667,-0.125
1570769.444,-0.105
1570772.222,-0.085
1570775,-0.06
1570777.778,-0.025
1570780.556,0.015
1570783.333,0.035
1570786.111,0.05
1570788.889,0.07
1570791.667,0.09
1570794.444,0.11
1570797.222,0.095
1570800,0.065
1570802.778,0.015
1570805.556,-0.035
1570808.333,-0.07
1570811.111,-0.085
1570813.889,-0.09
1570816.667,-0.115
1570819.444,-0.145
1570822.222,-0.155
1570825,-0.145
1570827.778,-0.12
1570830.556,-0.09
1570833.333,-0.09
1570836.111,-0.09
1570838.889,-0.09
1570841.667,-0.105
1570844.444,-0.125
1570847.222,-0.175
1570850,-0.23
1570852.778,-0.28
1570855.556,-0.305
1570858.333,-0.29
1570861.111,-0.27
1570863.889,-0.28
1570866.667,-0.305
1570869.444,-0.365
1570872.222,-0.445
1570875,-0.495
1570877.778,-0.52
1570880.556,-0.53
1570883.333,-0.575
1570886.111,-0.635
1570888.889,-0.71
1570891.667,-0.77
1570894.444,-0.79
1570897.222,-0.805
1570900,-0.84
1570902.778,-0.865
1570905.556,-0.91
1570908.333,-0.96
1570911.111,-0.985
1570913.889,-0.99
1570916.667,-0.975
1570919.444,-0.98
1570922.222,-0.99
1570925,-0.985
1570927.778,-0.98
1570930.556,-0.965
1570933.333,-0.96
1570936.111,-0.96
1570938.889,-0.965
1570941.667,-0.99
1570944.444,-1
1570947.222,-1
1570950,-0.975
1570952.778,-0.97
1570955.556,-0.97
1570958.333,-0.945
1570961.111,-0.93
1570963.889,-0.915
1570966.667,-0.91
1570969.444,-0.875
1570972.222,-0.875
1570975,-0.845
1570977.778,-0.82
1570980.556,-0.775
1570983.333,-0.73
1570986.111,-0.72
1570988.889,-0.705
1570991.667,-0.68
1570994.444,-0.635
1570997.222,-0.6
1571000,-0.56
1571002.778,-0.515
1571005.556,-0.49
1571008.333,-0.44
1571011.111,-0.395
1571013.889,-0.38
1571016.667,-0.395
1571019.444,-0.405
1571022.222,-0.375
1571025,-0.32
1571027.778,-0.27
1571030.556,-0.24
1571033.333,-0.225
1571036.111,-0.21
1571038.889,-0.21
1571041.667,-0.16
1571044.444,-0.115
1571047.222,-0.08
1571050,-0.065
1571052.778,-0.07
1571055.556,-0.055
1571058.333,-0.01
1571061.111,0.03
1571063.889,0.105
1571066.667,0.155
1571069.444,0.185
1571072.222,0.205
1571075,0.205
1571077.778,0.205
1571080.556,0.185
1571083.333,0.17
1571086.111,0.13
1571088.889,0.055
1571091.667,-0.005
1571094.444,-0.025
1571097.222,-0.015
1571100,-0.025
1571102.778,-0.045
1571105.556,-0.065
1571108.333,-0.09
1571111.111,-0.1
1571113.889,-0.1
1571116.667,-0.095
1571119.444,-0.08
1571122.222,-0.09
1571125,-0.1
1571127.778,-0.105
1571130.556,-0.12
1571133.333,-0.15
1571136.111,-0.195
1571138.889,-0.24
1571141.667,-0.24
1571144.444,-0.23
1571147.222,-0.25
1571150,-0.34
1571152.778,-0.4
1571155.556,-0.425
1571158.333,-0.45
1571161.111,-0.45
1571163.889,-0.465
1571166.667,-0.515
1571169.444,-0.605
1571172.222,-0.68
1571175,-0.705
1571177.778,-0.705
1571180.556,-0.73
1571183.333,-0.75
1571186.111,-0.795
1571188.889,-0.83
1571191.667,-0.855
1571194.444,-0.865
1571197.222,-0.865
1571200,-0.88
1571202.778,-0.87
1571205.556,-0.875
1571208.333,-0.855
1571211.111,-0.83
1571213.889,-0.785
1571216.667,-0.785
1571219.444,-0.845
1571222.222,-0.865
1571225,-0.855
1571227.778,-0.815
1571230.556,-0.79
1571233.333,-0.785
1571236.111,-0.775
1571238.889,-0.78
1571241.667,-0.77
1571244.444,-0.77
1571247.222,-0.77
1571250,-0.765
1571252.778,-0.75
1571255.556,-0.73
1571258.333,-0.69
1571261.111,-0.65
1571263.889,-0.645
1571266.667,-0.635
1571269.444,-0.6
1571272.222,-0.565
1571275,-0.525
1571277.778,-0.47
1571280.556,-0.415
1571283.333,-0.38
1571286.111,-0.365
1571288.889,-0.32
1571291.667,-0.275
1571294.444,-0.24
1571297.222,-0.22
1571300,-0.195
1571302.778,-0.175
1571305.556,-0.145
1571308.333,-0.11
1571311.111,-0.08
1571313.889,-0.05
1571316.667,-0.015
1571319.444,0.02
1571322.222,0.055
1571325,0.045
1571327.778,0.025
1571330.556,0.04
1571333.333,0.105
1571336.111,0.15
1571338.889,0.17
1571341.667,0.22
1571344.444,0.265
1571347.222,0.29
1571350,0.325
1571352.778,0.41
1571355.556,0.445
1571358.333,0.455
1571361.111,0.46
1571363.889,0.475
1571366.667,0.45
1571369.444,0.39
1571372.222,0.295
1571375,0.215
1571377.778,0.15
1571380.556,0.1
1571383.333,0.075
1571386.111,0.07
1571388.889,0.07
1571391.667,0.06
1571394.444,0.005
1571397.222,-0.025
1571400,-0.04
1571402.778,-0.055
1571405.556,-0.08
1571408.333,-0.12
1571411.111,-0.125
1571413.889,-0.14
1571416.667,-0.2
1571419.444,-0.275
1571422.222,-0.305
1571425,-0.315
1571427.778,-0.345
1571430.556,-0.385
1571433.333,-0.435
1571436.111,-0.485
1571438.889,-0.505
1571441.667,-0.505
1571444.444,-0.52
1571447.222,-0.545
1571450,-0.59
1571452.778,-0.615
1571455.556,-0.63
1571458.333,-0.64
1571461.111,-0.685
1571463.889,-0.755
1571466.667,-0.8
1571469.444,-0.81
1571472.222,-0.805
1571475,-0.825
1571477.778,-0.805
1571480.556,-0.78
1571483.333,-0.79
1571486.111,-0.81
1571488.889,-0.845
1571491.667,-0.8
1571494.444,-0.74
1571497.222,-0.68
1571500,-0.655
1571502.778,-0.655
1571505.556,-0.68
1571508.333,-0.715
1571511.111,-0.71
1571513.889,-0.685
1571516.667,-0.665
1571519.444,-0.65
1571522.222,-0.635
1571525,-0.585
1571527.778,-0.585
1571530.556,-0.585
1571533.333,-0.605
1571536.111,-0.605
1571538.889,-0.595
1571541.667,-0.525
1571544.444,-0.465
1571547.222,-0.43
1571550,-0.395
1571552.778,-0.39
1571555.556,-0.365
1571558.333,-0.315
1571561.111,-0.235
1571563.889,-0.15
1571566.667,-0.11
1571569.444,-0.135
1571572.222,-0.13
1571575,-0.08
1571577.778,-0.02
1571580.556,0.015
1571583.333,0.05
1571586.111,0.06
1571588.889,0.04
1571591.667,0.04
1571594.444,0.085
1571597.222,0.135
1571600,0.18
1571602.778,0.21
1571605.556,0.215
1571608.333,0.24
1571611.111,0.26
1571613.889,0.28
1571616.667,0.29
1571619.444,0.315
1571622.222,0.39
1571625,0.45
1571627.778,0.445
1571630.556,0.45
1571633.333,0.5
1571636.111,0.585
1571638.889,0.635
1571641.667,0.625
1571644.444,0.58
1571647.222,0.54
1571650,0.505
1571652.778,0.455
1571655.556,0.35
1571658.333,0.275
1571661.111,0.235
1571663.889,0.265
1571666.667,0.28
1571669.444,0.225
1571672.222,0.16
1571675,0.075
1571677.778,0.06
1571680.556,0.1
1571683.333,0.08
1571686.111,0.005
1571688.889,-0.06
1571691.667,-0.08
1571694.444,-0.12
1571697.222,-0.155
1571700,-0.175
1571702.778,-0.2
1571705.556,-0.255
1571708.333,-0.295
1571711.111,-0.34
1571713.889,-0.36
1571716.667,-0.385
1571719.444,-0.39
1571722.222,-0.425
1571725,-0.48
1571727.778,-0.55
1571730.556,-0.585
1571733.333,-0.585
1571736.111,-0.575
1571738.889,-0.58
1571741.667,-0.62
1571744.444,-0.675
1571747.222,-0.705
1571750,-0.71
1571752.778,-0.705
1571755.556,-0.715
1571758.333,-0.74
1571761.111,-0.735
1571763.889,-0.7
1571766.667,-0.67
1571769.444,-0.655
1571772.222,-0.68
1571775,-0.68
1571777.778,-0.655
1571780.556,-0.61
1571783.333,-0.59
1571786.111,-0.61
1571788.889,-0.605
1571791.667,-0.615
1571794.444,-0.605
1571797.222,-0.63
1571800,-0.63
1571802.778,-0.6
1571805.556,-0.565
1571808.333,-0.54
1571811.111,-0.525
1571813.889,-0.485
1571816.667,-0.485
1571819.444,-0.485
1571822.222,-0.485
1571825,-0.465
1571827.778,-0.44
1571830.556,-0.395
1571833.333,-0.35
1571836.111,-0.305
1571838.889,-0.265
1571841.667,-0.255
1571844.444,-0.255
1571847.222,-0.225
1571850,-0.14
1571852.778,-0.055
1571855.556,0
1571858.333,0.03
1571861.111,0.045
1571863.889,0.035
1571866.667,0.015
1571869.444,0.03
1571872.222,0.075
1571875,0.135
1571877.778,0.18
1571880.556,0.21
1571883.333,0.19
1571886.111,0.165
1571888.889,0.175
1571891.667,0.23
1571894.444,0.295
1571897.222,0.325
1571900,0.33
1571902.778,0.31
1571905.556,0.34
1571908.333,0.355
1571911.111,0.42
1571913.889,0.5
1571916.667,0.56
1571919.444,0.59
1571922.222,0.615
1571925,0.62
1571927.778,0.63
1571930.556,0.655
1571933.333,0.66
1571936.111,0.65
1571938.889,0.625
1571941.667,0.61
1571944.444,0.555
1571947.222,0.485
1571950,0.375
1571952.778,0.295
1571955.556,0.275
1571958.333,0.26
1571961.111,0.255
1571963.889,0.24
1571966.667,0.22
1571969.444,0.195
1571972.222,0.165
1571975,0.145
1571977.778,0.125
1571980.556,0.085
1571983.333,0.02
1571986.111,-0.04
1571988.889,-0.095
1571991.667,-0.155
1571994.444,-0.195
1571997.222,-0.205
1572000,-0.19
1572002.778,-0.21
1572005.556,-0.265
1572008.333,-0.3
1572011.111,-0.325
1572013.889,-0.36
1572016.667,-0.38
1572019.444,-0.465
1572022.222,-0.5
1572025,-0.485
1572027.778,-0.475
1572030.556,-0.515
1572033.333,-0.58
1572036.111,-0.62
1572038.889,-0.655
1572041.667,-0.69
1572044.444,-0.675
1572047.222,-0.67
1572050,-0.66
1572052.778,-0.67
1572055.556,-0.7
1572058.333,-0.685
1572061.111,-0.64
1572063.889,-0.63
1572066.667,-0.64
1572069.444,-0.68
1572072.222,-0.705
1572075,-0.69
1572077.778,-0.645
1572080.556,-0.57
1572083.333,-0.565
1572086.111,-0.59
1572088.889,-0.64
1572091.667,-0.65
1572094.444,-0.605
1572097.222,-0.545
1572100,-0.525
1572102.778,-0.545
1572105.556,-0.56
1572108.333,-0.55
1572111.111,-0.5
1572113.889,-0.435
1572116.667,-0.42
1572119.444,-0.445
1572122.222,-0.455
1572125,-0.43
1572127.778,-0.37
1572130.556,-0.31
1572133.333,-0.27
1572136.111,-0.225
1572138.889,-0.18
1572141.667,-0.125
1572144.444,-0.12
1572147.222,-0.115
1572150,-0.105
1572152.778,-0.045
1572155.556,0.035
1572158.333,0.095
1572161.111,0.125
1572163.889,0.115
1572166.667,0.15
1572169.444,0.155
1572172.222,0.175
1572175,0.2
1572177.778,0.255
1572180.556,0.295
1572183.333,0.315
1572186.111,0.305
1572188.889,0.315
1572191.667,0.355
1572194.444,0.405
1572197.222,0.445
1572200,0.47
1572202.778,0.455
1572205.556,0.465
1572208.333,0.53
1572211.111,0.625
1572213.889,0.695
1572216.667,0.735
1572219.444,0.745
1572222.222,0.76
1572225,0.76
1572227.778,0.725
1572230.556,0.7
1572233.333,0.65
1572236.111,0.565
1572238.889,0.51
1572241.667,0.46
1572244.444,0.41
1572247.222,0.355
1572250,0.3
1572252.778,0.25
1572255.556,0.25
1572258.333,0.265
1572261.111,0.26
1572263.889,0.22
1572266.667,0.155
1572269.444,0.1
1572272.222,0.045
1572275,-0.01
1572277.778,-0.025
1572280.556,-0.03
1572283.333,-0.085
1572286.111,-0.145
1572288.889,-0.18
1572291.667,-0.205
1572294.444,-0.22
1572297.222,-0.25
1572300,-0.26
1572302.778,-0.295
1572305.556,-0.355
1572308.333,-0.355
1572311.111,-0.36
1572313.889,-0.395
1572316.667,-0.435
1572319.444,-0.485
1572322.222,-0.515
1572325,-0.56
1572327.778,-0.585
1572330.556,-0.605
1572333.333,-0.59
1572336.111,-0.59
1572338.889,-0.585
1572341.667,-0.575
1572344.444,-0.545
1572347.222,-0.51
1572350,-0.505
1572352.778,-0.54
1572355.556,-0.58
1572358.333,-0.575
1572361.111,-0.54
1572363.889,-0.52
1572366.667,-0.53
1572369.444,-0.545
1572372.222,-0.51
1572375,-0.465
1572377.778,-0.44
1572380.556,-0.465
1572383.333,-0.5
1572386.111,-0.535
1572388.889,-0.525
1572391.667,-0.51
1572394.444,-0.47
1572397.222,-0.43
1572400,-0.395
1572402.778,-0.34
1572405.556,-0.3
1572408.333,-0.285
1572411.111,-0.28
1572413.889,-0.275
1572416.667,-0.26
1572419.444,-0.235
1572422.222,-0.19
1572425,-0.125
1572427.778,-0.105
1572430.556,-0.08
1572433.333,-0.065
1572436.111,-0.02
1572438.889,0.02
1572441.667,0.075
1572444.444,0.125
1572447.222,0.14
1572450,0.13
1572452.778,0.115
1572455.556,0.145
1572458.333,0.19
1572461.111,0.235
1572463.889,0.23
1572466.667,0.24
1572469.444,0.265
1572472.222,0.3
1572475,0.325
1572477.778,0.365
1572480.556,0.39
1572483.333,0.42
1572486.111,0.42
1572488.889,0.41
1572491.667,0.455
1572494.444,0.515
1572497.222,0.55
1572500,0.55
1572502.778,0.59
1572505.556,0.66
1572508.333,0.72
1572511.111,0.76
1572513.889,0.765
1572516.667,0.735
1572519.444,0.715
1572522.222,0.69
1572525,0.67
1572527.778,0.585
1572530.556,0.47
1572533.333,0.38
1572536.111,0.32
1572538.889,0.35
1572541.667,0.37
1572544.444,0.38
1572547.222,0.325
1572550,0.225
1572552.778,0.16
1572555.556,0.13
1572558.333,0.115
1572561.111,0.085
1572563.889,0.05
1572566.667,0.015
1572569.444,-0.05
1572572.222,-0.13
1572575,-0.18
1572577.778,-0.19
1572580.556,-0.185
1572583.333,-0.235
1572586.111,-0.31
1572588.889,-0.36
1572591.667,-0.38
1572594.444,-0.39
1572597.222,-0.41
1572600,-0.44
1572602.778,-0.5
1572605.556,-0.54
1572608.333,-0.58
1572611.111,-0.565
1572613.889,-0.585
1572616.667,-0.63
1572619.444,-0.675
1572622.222,-0.665
1572625,-0.645
1572627.778,-0.635
1572630.556,-0.62
1572633.333,-0.63
1572636.111,-0.665
1572638.889,-0.685
1572641.667,-0.7
1572644.444,-0.675
1572647.222,-0.65
1572650,-0.66
1572652.778,-0.685
1572655.556,-0.67
1572658.333,-0.645
1572661.111,-0.64
1572663.889,-0.615
1572666.667,-0.62
1572669.444,-0.63
1572672.222,-0.64
1572675,-0.63
1572677.778,-0.585
1572680.556,-0.56
1572683.333,-0.56
1572686.111,-0.565
1572688.889,-0.565
1572691.667,-0.545
1572694.444,-0.515
1572697.222,-0.48
1572700,-0.45
1572702.778,-0.435
1572705.556,-0.425
1572708.333,-0.385
1572711.111,-0.325
1572713.889,-0.265
1572716.667,-0.22
1572719.444,-0.18
1572722.222,-0.15
1572725,-0.115
1572727.778,-0.07
1572730.556,-0.035
1572733.333,-0.045
1572736.111,-0.05
1572738.889,-0.04
1572741.667,0
1572744.444,0.05
1572747.222,0.07
1572750,0.095
1572752.778,0.11
1572755.556,0.13
1572758.333,0.145
1572761.111,0.16
1572763.889,0.2
1572766.667,0.22
1572769.444,0.235
1572772.222,0.275
1572775,0.305
1572777.778,0.335
1572780.556,0.36
1572783.333,0.37
1572786.111,0.39
1572788.889,0.41
1572791.667,0.45
1572794.444,0.495
1572797.222,0.54
1572800,0.57
1572802.778,0.595
1572805.556,0.595
1572808.333,0.58
1572811.111,0.57
1572813.889,0.54
1572816.667,0.5
1572819.444,0.425
1572822.222,0.375
1572825,0.335
1572827.778,0.33
1572830.556,0.32
1572833.333,0.29
1572836.111,0.285
1572838.889,0.25
1572841.667,0.205
1572844.444,0.175
1572847.222,0.135
1572850,0.1
1572852.778,0.055
1572855.556,0.01
1572858.333,-0.015
1572861.111,-0.04
1572863.889,-0.06
1572866.667,-0.11
1572869.444,-0.14
1572872.222,-0.175
1572875,-0.2
1572877.778,-0.25
1572880.556,-0.285
1572883.333,-0.31
1572886.111,-0.345
1572888.889,-0.36
1572891.667,-0.39
1572894.444,-0.43
1572897.222,-0.455
1572900,-0.485
1572902.778,-0.53
1572905.556,-0.545
1572908.333,-0.56
1572911.111,-0.565
1572913.889,-0.56
1572916.667,-0.595
1572919.444,-0.615
1572922.222,-0.635
1572925,-0.635
1572927.778,-0.62
1572930.556,-0.615
1572933.333,-0.61
1572936.111,-0.63
1572938.889,-0.635
1572941.667,-0.64
1572944.444,-0.61
1572947.222,-0.6
1572950,-0.595
1572952.778,-0.605
1572955.556,-0.61
1572958.333,-0.605
1572961.111,-0.61
1572963.889,-0.58
1572966.667,-0.585
1572969.444,-0.585
1572972.222,-0.58
1572975,-0.575
1572977.778,-0.52
1572980.556,-0.51
1572983.333,-0.49
1572986.111,-0.49
1572988.889,-0.47
1572991.667,-0.44
1572994.444,-0.415
1572997.222,-0.375
1573000,-0.37
1573002.778,-0.345
1573005.556,-0.315
1573008.333,-0.285
1573011.111,-0.225
1573013.889,-0.185
1573016.667,-0.165
1573019.444,-0.145
1573022.222,-0.125
1573025,-0.095
1573027.778,-0.08
1573030.556,-0.055
1573033.333,-0.035
1573036.111,-0.025
1573038.889,-0.01
1573041.667,-0.005
1573044.444,0.02
1573047.222,0.045
1573050,0.065
1573052.778,0.07
1573055.556,0.1
1573058.333,0.14
1573061.111,0.17
1573063.889,0.19
1573066.667,0.2
1573069.444,0.185
1573072.222,0.21
1573075,0.24
1573077.778,0.285
1573080.556,0.32
1573083.333,0.345
1573086.111,0.355
1573088.889,0.365
1573091.667,0.385
1573094.444,0.4
1573097.222,0.385
1573100,0.355
1573102.778,0.29
1573105.556,0.235
1573108.333,0.2
1573111.111,0.175
1573113.889,0.165
1573116.667,0.15
1573119.444,0.145
1573122.222,0.12
1573125,0.11
1573127.778,0.12
1573130.556,0.1
1573133.333,0.065
1573136.111,0.035
1573138.889,0
1573141.667,-0.015
1573144.444,-0.03
1573147.222,-0.055
1573150,-0.105
1573152.778,-0.135
1573155.556,-0.155
1573158.333,-0.175
1573161.111,-0.185
1573163.889,-0.215
1573166.667,-0.265
1573169.444,-0.285
1573172.222,-0.315
1573175,-0.31
1573177.778,-0.34
1573180.556,-0.385
1573183.333,-0.44
1573186.111,-0.495
1573188.889,-0.535
1573191.667,-0.555
1573194.444,-0.545
1573197.222,-0.55
1573200,-0.565
1573202.778,-0.59
1573205.556,-0.62
1573208.333,-0.62
1573211.111,-0.605
1573213.889,-0.605
1573216.667,-0.63
1573219.444,-0.67
1573222.222,-0.655
1573225,-0.645
1573227.778,-0.635
1573230.556,-0.625
1573233.333,-0.615
1573236.111,-0.605
1573238.889,-0.59
1573241.667,-0.56
1573244.444,-0.565
1573247.222,-0.565
1573250,-0.56
1573252.778,-0.545
1573255.556,-0.545
1573258.333,-0.49
1573261.111,-0.45
1573263.889,-0.44
1573266.667,-0.42
1573269.444,-0.43
1573272.222,-0.43
1573275,-0.41
1573277.778,-0.375
1573280.556,-0.35
1573283.333,-0.34
1573286.111,-0.335
1573288.889,-0.33
1573291.667,-0.29
1573294.444,-0.275
1573297.222,-0.265
1573300,-0.26
1573302.778,-0.24
1573305.556,-0.215
1573308.333,-0.195
1573311.111,-0.18
1573313.889,-0.17
1573316.667,-0.16
1573319.444,-0.13
1573322.222,-0.105
1573325,-0.075
1573327.778,-0.045
1573330.556,-0.01
1573333.333,0.005
1573336.111,0.005
1573338.889,0
1573341.667,0.04
1573344.444,0.085
1573347.222,0.1
1573350,0.095
1573352.778,0.08
1573355.556,0.075
1573358.333,0.105
1573361.111,0.125
1573363.889,0.155
1573366.667,0.17
1573369.444,0.19
1573372.222,0.205
1573375,0.215
1573377.778,0.22
1573380.556,0.17
1573383.333,0.12
1573386.111,0.055
1573388.889,0.02
1573391.667,0.005
1573394.444,-0.005
1573397.222,0
1573400,-0.01
1573402.778,-0.005
1573405.556,0.005
1573408.333,0
1573411.111,-0.035
1573413.889,-0.065
1573416.667,-0.11
1573419.444,-0.155
1573422.222,-0.19
1573425,-0.22
1573427.778,-0.235
1573430.556,-0.245
1573433.333,-0.24
1573436.111,-0.26
1573438.889,-0.295
1573441.667,-0.31
1573444.444,-0.305
1573447.222,-0.325
1573450,-0.365
1573452.778,-0.4
1573455.556,-0.45
1573458.333,-0.46
1573461.111,-0.48
1573463.889,-0.49
1573466.667,-0.515
1573469.444,-0.54
1573472.222,-0.565
1573475,-0.575
1573477.778,-0.57
1573480.556,-0.575
1573483.333,-0.6
1573486.111,-0.58
1573488.889,-0.6
1573491.667,-0.605
1573494.444,-0.61
1573497.222,-0.615
1573500,-0.625
1573502.778,-0.64
1573505.556,-0.655
1573508.333,-0.65
1573511.111,-0.63
1573513.889,-0.625
1573516.667,-0.615
1573519.444,-0.61
1573522.222,-0.595
1573525,-0.585
1573527.778,-0.58
1573530.556,-0.585
1573533.333,-0.56
1573536.111,-0.55
1573538.889,-0.53
1573541.667,-0.515
1573544.444,-0.495
1573547.222,-0.47
1573550,-0.45
1573552.778,-0.435
1573555.556,-0.425
1573558.333,-0.39
1573561.111,-0.36
1573563.889,-0.35
1573566.667,-0.33
1573569.444,-0.305
1573572.222,-0.3
1573575,-0.295
1573577.778,-0.285
1573580.556,-0.29
1573583.333,-0.285
1573586.111,-0.29
1573588.889,-0.285
1573591.667,-0.25
1573594.444,-0.23
1573597.222,-0.22
1573600,-0.21
1573602.778,-0.195
1573605.556,-0.155
1573608.333,-0.12
1573611.111,-0.105
1573613.889,-0.1
1573616.667,-0.095
1573619.444,-0.08
1573622.222,-0.065
1573625,-0.045
1573627.778,-0.01
1573630.556,0.005
1573633.333,0.01
1573636.111,0.025
1573638.889,0.045
1573641.667,0.09
1573644.444,0.11
1573647.222,0.115
1573650,0.1
1573652.778,0.08
1573655.556,0.04
1573658.333,0.015
1573661.111,-0.015
1573663.889,-0.02
1573666.667,-0.065
1573669.444,-0.08
1573672.222,-0.08
1573675,-0.04
1573677.778,-0.02
1573680.556,-0.04
1573683.333,-0.07
1573686.111,-0.125
1573688.889,-0.165
1573691.667,-0.175
1573694.444,-0.205
1573697.222,-0.25
1573700,-0.27
1573702.778,-0.28
1573705.556,-0.29
1573708.333,-0.29
1573711.111,-0.3
1573713.889,-0.315
1573716.667,-0.355
1573719.444,-0.385
1573722.222,-0.375
1573725,-0.37
1573727.778,-0.385
1573730.556,-0.4
1573733.333,-0.435
1573736.111,-0.48
1573738.889,-0.495
1573741.667,-0.495
1573744.444,-0.5
1573747.222,-0.505
1573750,-0.545
1573752.778,-0.555
1573755.556,-0.57
1573758.333,-0.565
1573761.111,-0.555
1573763.889,-0.57
1573766.667,-0.605
1573769.444,-0.64
1573772.222,-0.655
1573775,-0.63
1573777.778,-0.61
1573780.556,-0.58
1573783.333,-0.58
1573786.111,-0.565
1573788.889,-0.56
1573791.667,-0.555
1573794.444,-0.56
1573797.222,-0.56
1573800,-0.54
1573802.778,-0.52
1573805.556,-0.535
1573808.333,-0.53
1573811.111,-0.51
1573813.889,-0.49
1573816.667,-0.465
1573819.444,-0.43
1573822.222,-0.41
1573825,-0.355
1573827.778,-0.325
1573830.556,-0.335
1573833.333,-0.355
1573836.111,-0.34
1573838.889,-0.305
1573841.667,-0.27
1573844.444,-0.255
1573847.222,-0.25
1573850,-0.24
1573852.778,-0.235
1573855.556,-0.235
1573858.333,-0.21
1573861.111,-0.175
1573863.889,-0.14
1573866.667,-0.125
1573869.444,-0.135
1573872.222,-0.12
1573875,-0.09
1573877.778,-0.075
1573880.556,-0.07
1573883.333,-0.075
1573886.111,-0.065
1573888.889,-0.03
1573891.667,-0.005
1573894.444,0.015
1573897.222,0.005
1573900,-0.005
1573902.778,0
1573905.556,0.01
1573908.333,0.045
1573911.111,0.055
1573913.889,0.09
1573916.667,0.11
1573919.444,0.125
1573922.222,0.12
1573925,0.11
1573927.778,0.08
1573930.556,0.015
1573933.333,-0.035
1573936.111,-0.065
1573938.889,-0.09
1573941.667,-0.1
1573944.444,-0.1
1573947.222,-0.105
1573950,-0.125
1573952.778,-0.135
1573955.556,-0.115
1573958.333,-0.11
1573961.111,-0.115
1573963.889,-0.15
1573966.667,-0.205
1573969.444,-0.24
1573972.222,-0.255
1573975,-0.23
1573977.778,-0.21
1573980.556,-0.215
1573983.333,-0.24
1573986.111,-0.285
1573988.889,-0.32
1573991.667,-0.34
1573994.444,-0.33
1573997.222,-0.35
1574000,-0.35
1574002.778,-0.385
1574005.556,-0.4
1574008.333,-0.415
1574011.111,-0.41
1574013.889,-0.445
1574016.667,-0.48
1574019.444,-0.495
1574022.222,-0.52
1574025,-0.55
1574027.778,-0.555
1574030.556,-0.545
1574033.333,-0.545
1574036.111,-0.56
1574038.889,-0.57
1574041.667,-0.57
1574044.444,-0.565
1574047.222,-0.58
1574050,-0.58
1574052.778,-0.565
1574055.556,-0.565
1574058.333,-0.55
1574061.111,-0.535
1574063.889,-0.535
1574066.667,-0.535
1574069.444,-0.54
1574072.222,-0.505
1574075,-0.48
1574077.778,-0.475
1574080.556,-0.485
1574083.333,-0.51
1574086.111,-0.51
1574088.889,-0.48
1574091.667,-0.435
1574094.444,-0.41
1574097.222,-0.4
1574100,-0.41
1574102.778,-0.37
1574105.556,-0.345
1574108.333,-0.305
1574111.111,-0.29
1574113.889,-0.26
1574116.667,-0.245
1574119.444,-0.245
1574122.222,-0.245
1574125,-0.215
1574127.778,-0.175
1574130.556,-0.165
1574133.333,-0.16
1574136.111,-0.15
1574138.889,-0.17
1574141.667,-0.145
1574144.444,-0.125
1574147.222,-0.095
1574150,-0.055
1574152.778,-0.04
1574155.556,-0.04
1574158.333,-0.005
1574161.111,0.025
1574163.889,0.025
1574166.667,0
1574169.444,-0.015
1574172.222,0
1574175,0.045
1574177.778,0.095
1574180.556,0.11
1574183.333,0.115
1574186.111,0.105
1574188.889,0.11
1574191.667,0.135
1574194.444,0.14
1574197.222,0.15
1574200,0.12
1574202.778,0.08
1574205.556,0.025
1574208.333,0
1574211.111,-0.05
1574213.889,-0.07
1574216.667,-0.085
1574219.444,-0.09
1574222.222,-0.085
1574225,-0.07
1574227.778,-0.06
1574230.556,-0.08
1574233.333,-0.12
1574236.111,-0.175
1574238.889,-0.195
1574241.667,-0.2
1574244.444,-0.19
1574247.222,-0.195
1574250,-0.21
1574252.778,-0.23
1574255.556,-0.195
1574258.333,-0.19
1574261.111,-0.2
1574263.889,-0.22
1574266.667,-0.245
1574269.444,-0.265
1574272.222,-0.27
1574275,-0.275
1574277.778,-0.295
1574280.556,-0.335
1574283.333,-0.39
1574286.111,-0.415
1574288.889,-0.44
1574291.667,-0.46
1574294.444,-0.46
1574297.222,-0.485
1574300,-0.53
1574302.778,-0.545
1574305.556,-0.56
1574308.333,-0.55
1574311.111,-0.55
1574313.889,-0.575
1574316.667,-0.575
1574319.444,-0.59
1574322.222,-0.605
1574325,-0.59
1574327.778,-0.6
1574330.556,-0.595
1574333.333,-0.62
1574336.111,-0.64
1574338.889,-0.635
1574341.667,-0.615
1574344.444,-0.575
1574347.222,-0.59
1574350,-0.605
1574352.778,-0.595
1574355.556,-0.58
1574358.333,-0.54
1574361.111,-0.5
1574363.889,-0.475
1574366.667,-0.47
1574369.444,-0.465
1574372.222,-0.455
1574375,-0.405
1574377.778,-0.365
1574380.556,-0.38
1574383.333,-0.35
1574386.111,-0.345
1574388.889,-0.34
1574391.667,-0.3
1574394.444,-0.27
1574397.222,-0.235
1574400,-0.22
1574402.778,-0.215
1574405.556,-0.21
1574408.333,-0.185
1574411.111,-0.155
1574413.889,-0.125
1574416.667,-0.11
1574419.444,-0.11
1574422.222,-0.09
1574425,-0.05
1574427.778,-0.025
1574430.556,-0.02
1574433.333,-0.035
1574436.111,-0.035
1574438.889,-0.005
1574441.667,0.025
1574444.444,0.08
1574447.222,0.105
1574450,0.11
1574452.778,0.13
1574455.556,0.12
1574458.333,0.14
1574461.111,0.14
1574463.889,0.13
1574466.667,0.075
1574469.444,0.015
1574472.222,-0.04
1574475,-0.065
1574477.778,-0.095
1574480.556,-0.095
1574483.333,-0.1
1574486.111,-0.065
1574488.889,-0.05
1574491.667,-0.045
1574494.444,-0.04
1574497.222,-0.05
1574500,-0.08
1574502.778,-0.105
1574505.556,-0.125
1574508.333,-0.125
1574511.111,-0.13
1574513.889,-0.15
1574516.667,-0.17
1574519.444,-0.195
1574522.222,-0.215
1574525,-0.195
1574527.778,-0.16
1574530.556,-0.175
1574533.333,-0.165
1574536.111,-0.165
1574538.889,-0.2
1574541.667,-0.225
1574544.444,-0.255
1574547.222,-0.3
1574550,-0.325
1574552.778,-0.355
1574555.556,-0.385
1574558.333,-0.395
1574561.111,-0.405
1574563.889,-0.425
1574566.667,-0.455
1574569.444,-0.48
1574572.222,-0.495
1574575,-0.505
1574577.778,-0.51
1574580.556,-0.515
1574583.333,-0.51
1574586.111,-0.515
1574588.889,-0.515
1574591.667,-0.505
1574594.444,-0.5
1574597.222,-0.525
1574600,-0.535
1574602.778,-0.555
1574605.556,-0.565
1574608.333,-0.57
1574611.111,-0.535
1574613.889,-0.52
1574616.667,-0.55
1574619.444,-0.56
1574622.222,-0.54
1574625,-0.505
1574627.778,-0.47
1574630.556,-0.47
1574633.333,-0.465
1574636.111,-0.445
1574638.889,-0.45
1574641.667,-0.43
1574644.444,-0.395
1574647.222,-0.385
1574650,-0.385
1574652.778,-0.36
1574655.556,-0.305
1574658.333,-0.26
1574661.111,-0.22
1574663.889,-0.2
1574666.667,-0.22
1574669.444,-0.21
1574672.222,-0.19
1574675,-0.17
1574677.778,-0.16
1574680.556,-0.135
1574683.333,-0.12
1574686.111,-0.11
1574688.889,-0.105
1574691.667,-0.085
1574694.444,-0.07
1574697.222,-0.07
1574700,-0.085
1574702.778,-0.08
1574705.556,-0.065
1574708.333,-0.025
1574711.111,0.02
1574713.889,0.03
1574716.667,0.04
1574719.444,0.025
1574722.222,0.03
1574725,0.04
1574727.778,0.03
1574730.556,-0.015
1574733.333,-0.07
1574736.111,-0.09
1574738.889,-0.1
1574741.667,-0.09
1574744.444,-0.1
1574747.222,-0.115
1574750,-0.12
1574752.778,-0.105
1574755.556,-0.1
1574758.333,-0.085
1574761.111,-0.11
1574763.889,-0.135
1574766.667,-0.175
1574769.444,-0.2
1574772.222,-0.215
1574775,-0.195
1574777.778,-0.195
1574780.556,-0.2
1574783.333,-0.205
1574786.111,-0.205
1574788.889,-0.21
1574791.667,-0.21
1574794.444,-0.225
1574797.222,-0.25
1574800,-0.245
1574802.778,-0.24
1574805.556,-0.25
1574808.333,-0.26
1574811.111,-0.295
1574813.889,-0.31
1574816.667,-0.34
1574819.444,-0.4
1574822.222,-0.44
1574825,-0.44
1574827.778,-0.415
1574830.556,-0.43
1574833.333,-0.445
1574836.111,-0.49
1574838.889,-0.51
1574841.667,-0.505
1574844.444,-0.48
1574847.222,-0.47
1574850,-0.49
1574852.778,-0.505
1574855.556,-0.525
1574858.333,-0.495
1574861.111,-0.48
1574863.889,-0.475
1574866.667,-0.495
1574869.444,-0.485
1574872.222,-0.5
1574875,-0.49
1574877.778,-0.475
1574880.556,-0.465
1574883.333,-0.485
1574886.111,-0.475
1574888.889,-0.475
1574891.667,-0.455
1574894.444,-0.435
1574897.222,-0.435
1574900,-0.435
1574902.778,-0.43
1574905.556,-0.425
1574908.333,-0.4
1574911.111,-0.375
1574913.889,-0.35
1574916.667,-0.335
1574919.444,-0.335
1574922.222,-0.31
1574925,-0.28
1574927.778,-0.25
1574930.556,-0.23
1574933.333,-0.215
1574936.111,-0.205
1574938.889,-0.185
1574941.667,-0.17
1574944.444,-0.145
1574947.222,-0.14
1574950,-0.13
1574952.778,-0.135
1574955.556,-0.125
1574958.333,-0.105
1574961.111,-0.09
1574963.889,-0.11
1574966.667,-0.1
1574969.444,-0.085
1574972.222,-0.09
1574975,-0.055
1574977.778,-0.03
1574980.556,-0.02
1574983.333,-0.03
1574986.111,-0.035
1574988.889,-0.005
1574991.667,0.02
1574994.444,0.015
1574997.222,0
1575000,-0.045
1575002.778,-0.1
1575005.556,-0.13
1575008.333,-0.145
1575011.111,-0.155
1575013.889,-0.145
1575016.667,-0.15
1575019.444,-0.15
1575022.222,-0.15
1575025,-0.16
1575027.778,-0.15
1575030.556,-0.165
1575033.333,-0.21
1575036.111,-0.265
1575038.889,-0.305
1575041.667,-0.325
1575044.444,-0.325
1575047.222,-0.33
1575050,-0.33
1575052.778,-0.305
1575055.556,-0.295
1575058.333,-0.3
1575061.111,-0.3
1575063.889,-0.315
1575066.667,-0.355
1575069.444,-0.37
1575072.222,-0.38
1575075,-0.36
1575077.778,-0.35
1575080.556,-0.37
1575083.333,-0.395
1575086.111,-0.445
1575088.889,-0.48
1575091.667,-0.495
1575094.444,-0.495
1575097.222,-0.515
1575100,-0.55
1575102.778,-0.55
1575105.556,-0.58
1575108.333,-0.585
1575111.111,-0.59
1575113.889,-0.61
1575116.667,-0.62
1575119.444,-0.65
1575122.222,-0.64
1575125,-0.65
1575127.778,-0.66
1575130.556,-0.675
1575133.333,-0.685
1575136.111,-0.665
1575138.889,-0.64
1575141.667,-0.635
1575144.444,-0.645
1575147.222,-0.675
1575150,-0.69
1575152.778,-0.68
1575155.556,-0.67
1575158.333,-0.66
1575161.111,-0.64
1575163.889,-0.62
1575166.667,-0.61
1575169.444,-0.605
1575172.222,-0.575
1575175,-0.535
1575177.778,-0.52
1575180.556,-0.525
1575183.333,-0.515
1575186.111,-0.485
1575188.889,-0.435
1575191.667,-0.39
1575194.444,-0.355
1575197.222,-0.33
1575200,-0.325
1575202.778,-0.275
1575205.556,-0.245
1575208.333,-0.21
1575211.111,-0.19
1575213.889,-0.165
1575216.667,-0.16
1575219.444,-0.15
1575222.222,-0.095
1575225,-0.06
1575227.778,-0.005
1575230.556,0.01
1575233.333,0.03
1575236.111,0.035
1575238.889,0.055
1575241.667,0.11
1575244.444,0.155
1575247.222,0.18
1575250,0.175
1575252.778,0.185
1575255.556,0.2
1575258.333,0.245
1575261.111,0.28
1575263.889,0.26
1575266.667,0.195
1575269.444,0.135
1575272.222,0.09
1575275,0.07
1575277.778,0.065
1575280.556,0.065
1575283.333,0.05
1575286.111,0.04
1575288.889,0.025
1575291.667,0.04
1575294.444,0.035
1575297.222,0.01
1575300,-0.01
1575302.778,-0.06
1575305.556,-0.11
1575308.333,-0.155
1575311.111,-0.2
1575313.889,-0.22
1575316.667,-0.24
1575319.444,-0.275
1575322.222,-0.28
1575325,-0.27
1575327.778,-0.295
1575330.556,-0.335
1575333.333,-0.37
1575336.111,-0.365
1575338.889,-0.38
1575341.667,-0.385
1575344.444,-0.4
1575347.222,-0.395
1575350,-0.38
1575352.778,-0.365
1575355.556,-0.415
1575358.333,-0.475
1575361.111,-0.5
1575363.889,-0.485
1575366.667,-0.49
1575369.444,-0.505
1575372.222,-0.515
1575375,-0.51
1575377.778,-0.505
1575380.556,-0.5
1575383.333,-0.55
1575386.111,-0.605
1575388.889,-0.63
1575391.667,-0.6
1575394.444,-0.575
1575397.222,-0.56
1575400,-0.585
1575402.778,-0.58
1575405.556,-0.585
1575408.333,-0.59
1575411.111,-0.615
1575413.889,-0.64
1575416.667,-0.665
1575419.444,-0.66
1575422.222,-0.63
1575425,-0.605
1575427.778,-0.565
1575430.556,-0.58
1575433.333,-0.58
1575436.111,-0.575
1575438.889,-0.55
1575441.667,-0.535
1575444.444,-0.515
1575447.222,-0.485
1575450,-0.48
1575452.778,-0.465
1575455.556,-0.415
1575458.333,-0.365
1575461.111,-0.31
1575463.889,-0.285
1575466.667,-0.3
1575469.444,-0.295
1575472.222,-0.285
1575475,-0.225
1575477.778,-0.155
1575480.556,-0.1
1575483.333,-0.07
1575486.111,-0.065
1575488.889,-0.06
1575491.667,-0.055
1575494.444,-0.04
1575497.222,-0.015
1575500,0
1575502.778,0.015
1575505.556,0.055
1575508.333,0.09
1575511.111,0.12
1575513.889,0.125
1575516.667,0.14
1575519.444,0.17
1575522.222,0.205
1575525,0.25
1575527.778,0.295
1575530.556,0.33
1575533.333,0.385
1575536.111,0.425
1575538.889,0.4
1575541.667,0.33
1575544.444,0.24
1575547.222,0.2
1575550,0.18
1575552.778,0.18
1575555.556,0.175
1575558.333,0.15
1575561.111,0.12
1575563.889,0.105
1575566.667,0.1
1575569.444,0.08
1575572.222,0
1575575,-0.05
1575577.778,-0.06
1575580.556,-0.08
1575583.333,-0.105
1575586.111,-0.18
1575588.889,-0.265
1575591.667,-0.28
1575594.444,-0.27
1575597.222,-0.295
1575600,-0.34
1575602.778,-0.405
1575605.556,-0.435
1575608.333,-0.425
1575611.111,-0.41
1575613.889,-0.42
1575616.667,-0.44
1575619.444,-0.445
1575622.222,-0.45
1575625,-0.435
1575627.778,-0.43
1575630.556,-0.43
1575633.333,-0.43
1575636.111,-0.43
1575638.889,-0.435
1575641.667,-0.44
1575644.444,-0.445
1575647.222,-0.455
1575650,-0.455
1575652.778,-0.455
1575655.556,-0.46
1575658.333,-0.46
1575661.111,-0.47
1575663.889,-0.485
1575666.667,-0.495
1575669.444,-0.485
1575672.222,-0.48
1575675,-0.45
1575677.778,-0.465
1575680.556,-0.49
1575683.333,-0.515
1575686.111,-0.535
1575688.889,-0.525
1575691.667,-0.49
1575694.444,-0.465
1575697.222,-0.47
1575700,-0.515
1575702.778,-0.51
1575705.556,-0.505
1575708.333,-0.47
1575711.111,-0.43
1575713.889,-0.4
1575716.667,-0.4
1575719.444,-0.385
1575722.222,-0.345
1575725,-0.31
1575727.778,-0.275
1575730.556,-0.255
1575733.333,-0.185
1575736.111,-0.14
1575738.889,-0.09
1575741.667,-0.055
1575744.444,-0.065
1575747.222,-0.06
1575750,-0.02
1575752.778,0.035
1575755.556,0.075
1575758.333,0.1
1575761.111,0.125
1575763.889,0.16
1575766.667,0.19
1575769.444,0.19
1575772.222,0.225
1575775,0.255
1575777.778,0.29
1575780.556,0.31
1575783.333,0.31
1575786.111,0.34
1575788.889,0.36
1575791.667,0.39
1575794.444,0.41
1575797.222,0.435
1575800,0.455
1575802.778,0.51
1575805.556,0.56
1575808.333,0.585
1575811.111,0.595
1575813.889,0.585
1575816.667,0.535
1575819.444,0.475
1575822.222,0.405
1575825,0.305
1575827.778,0.29
1575830.556,0.315
1575833.333,0.335
1575836.111,0.32
1575838.889,0.26
1575841.667,0.18
1575844.444,0.14
1575847.222,0.12
1575850,0.085
1575852.778,0.03
1575855.556,-0.015
1575858.333,-0.07
1575861.111,-0.125
1575863.889,-0.185
1575866.667,-0.225
1575869.444,-0.245
1575872.222,-0.265
1575875,-0.335
1575877.778,-0.405
1575880.556,-0.44
1575883.333,-0.425
1575886.111,-0.385
1575888.889,-0.4
1575891.667,-0.41
1575894.444,-0.415
1575897.222,-0.4
1575900,-0.41
1575902.778,-0.42
1575905.556,-0.42
1575908.333,-0.41
1575911.111,-0.4
1575913.889,-0.4
1575916.667,-0.43
1575919.444,-0.435
1575922.222,-0.425
1575925,-0.42
1575927.778,-0.44
1575930.556,-0.47
1575933.333,-0.46
1575936.111,-0.455
1575938.889,-0.465
1575941.667,-0.485
1575944.444,-0.475
1575947.222,-0.44
1575950,-0.4
1575952.778,-0.41
1575955.556,-0.405
1575958.333,-0.39
1575961.111,-0.4
1575963.889,-0.405
1575966.667,-0.39
1575969.444,-0.375
1575972.222,-0.38
1575975,-0.37
1575977.778,-0.33
1575980.556,-0.275
1575983.333,-0.245
1575986.111,-0.245
1575988.889,-0.26
1575991.667,-0.26
1575994.444,-0.22
1575997.222,-0.14
1576000,-0.075
1576002.778,-0.05
1576005.556,-0.01
1576008.333,-0.015
1576011.111,0.01
1576013.889,0.005
1576016.667,0.065
1576019.444,0.125
1576022.222,0.17
1576025,0.165
1576027.778,0.15
1576030.556,0.185
1576033.333,0.25
1576036.111,0.285
1576038.889,0.3
1576041.667,0.305
1576044.444,0.36
1576047.222,0.375
1576050,0.385
1576052.778,0.415
1576055.556,0.455
1576058.333,0.495
1576061.111,0.51
1576063.889,0.505
1576066.667,0.53
1576069.444,0.575
1576072.222,0.605
1576075,0.615
1576077.778,0.655
1576080.556,0.725
1576083.333,0.785
1576086.111,0.805
1576088.889,0.78
1576091.667,0.71
1576094.444,0.64
1576097.222,0.57
1576100,0.54
1576102.778,0.545
1576105.556,0.505
1576108.333,0.445
1576111.111,0.38
1576113.889,0.375
1576116.667,0.35
1576119.444,0.3
1576122.222,0.24
1576125,0.12
1576127.778,-0.03
1576130.556,-0.1
1576133.333,-0.085
1576136.111,-0.09
1576138.889,-0.145
1576141.667,-0.21
1576144.444,-0.27
1576147.222,-0.32
1576150,-0.34
1576152.778,-0.345
1576155.556,-0.36
1576158.333,-0.355
1576161.111,-0.365
1576163.889,-0.375
1576166.667,-0.355
1576169.444,-0.325
1576172.222,-0.335
1576175,-0.365
1576177.778,-0.38
1576180.556,-0.395
1576183.333,-0.375
1576186.111,-0.37
1576188.889,-0.39
1576191.667,-0.415
1576194.444,-0.42
1576197.222,-0.425
1576200,-0.435
1576202.778,-0.445
1576205.556,-0.435
1576208.333,-0.43
1576211.111,-0.445
1576213.889,-0.49
1576216.667,-0.495
1576219.444,-0.5
1576222.222,-0.46
1576225,-0.42
1576227.778,-0.425
1576230.556,-0.47
1576233.333,-0.475
1576236.111,-0.455
1576238.889,-0.425
1576241.667,-0.41
1576244.444,-0.325
1576247.222,-0.27
1576250,-0.265
1576252.778,-0.275
1576255.556,-0.27
1576258.333,-0.22
1576261.111,-0.13
1576263.889,-0.075
1576266.667,-0.08
1576269.444,-0.09
1576272.222,-0.025
1576275,0.05
1576277.778,0.105
1576280.556,0.105
1576283.333,0.09
1576286.111,0.12
1576288.889,0.18
1576291.667,0.245
1576294.444,0.295
1576297.222,0.35
1576300,0.385
1576302.778,0.37
1576305.556,0.375
1576308.333,0.425
1576311.111,0.54
1576313.889,0.58
1576316.667,0.59
1576319.444,0.575
1576322.222,0.59
1576325,0.63
1576327.778,0.645
1576330.556,0.695
1576333.333,0.75
1576336.111,0.78
1576338.889,0.82
1576341.667,0.865
1576344.444,0.915
1576347.222,0.905
1576350,0.865
1576352.778,0.8
1576355.556,0.765
1576358.333,0.735
1576361.111,0.685
1576363.889,0.64
1576366.667,0.59
1576369.444,0.58
1576372.222,0.55
1576375,0.5
1576377.778,0.445
1576380.556,0.365
1576383.333,0.27
1576386.111,0.17
1576388.889,0.095
1576391.667,0.06
1576394.444,0.02
1576397.222,-0.03
1576400,-0.08
1576402.778,-0.1
1576405.556,-0.09
1576408.333,-0.125
1576411.111,-0.19
1576413.889,-0.275
1576416.667,-0.32
1576419.444,-0.31
1576422.222,-0.28
1576425,-0.27
1576427.778,-0.245
1576430.556,-0.235
1576433.333,-0.26
1576436.111,-0.295
1576438.889,-0.295
1576441.667,-0.27
1576444.444,-0.265
1576447.222,-0.29
1576450,-0.355
1576452.778,-0.375
1576455.556,-0.355
1576458.333,-0.32
1576461.111,-0.325
1576463.889,-0.355
1576466.667,-0.395
1576469.444,-0.385
1576472.222,-0.4
1576475,-0.41
1576477.778,-0.42
1576480.556,-0.42
1576483.333,-0.425
1576486.111,-0.43
1576488.889,-0.425
1576491.667,-0.435
1576494.444,-0.42
1576497.222,-0.4
1576500,-0.435
1576502.778,-0.45
1576505.556,-0.42
1576508.333,-0.35
1576511.111,-0.3
1576513.889,-0.315
1576516.667,-0.335
1576519.444,-0.305
1576522.222,-0.26
1576525,-0.185
1576527.778,-0.15
1576530.556,-0.12
1576533.333,-0.085
1576536.111,-0.085
1576538.889,-0.075
1576541.667,-0.01
1576544.444,0.04
1576547.222,0.08
1576550,0.115
1576552.778,0.14
1576555.556,0.13
1576558.333,0.135
1576561.111,0.2
1576563.889,0.275
1576566.667,0.295
1576569.444,0.295
1576572.222,0.325
1576575,0.38
1576577.778,0.415
1576580.556,0.46
1576583.333,0.47
1576586.111,0.48
1576588.889,0.49
1576591.667,0.535
1576594.444,0.575
1576597.222,0.65
1576600,0.715
1576602.778,0.755
1576605.556,0.77
1576608.333,0.8
1576611.111,0.815
1576613.889,0.81
1576616.667,0.8
1576619.444,0.785
1576622.222,0.75
1576625,0.68
1576627.778,0.6
1576630.556,0.56
1576633.333,0.53
1576636.111,0.525
1576638.889,0.485
1576641.667,0.465
1576644.444,0.425
1576647.222,0.38
1576650,0.295
1576652.778,0.22
1576655.556,0.12
1576658.333,0.025
1576661.111,-0.055
1576663.889,-0.11
1576666.667,-0.135
1576669.444,-0.15
1576672.222,-0.19
1576675,-0.245
1576677.778,-0.28
1576680.556,-0.3
1576683.333,-0.345
1576686.111,-0.4
1576688.889,-0.385
1576691.667,-0.345
1576694.444,-0.28
1576697.222,-0.245
1576700,-0.26
1576702.778,-0.29
1576705.556,-0.32
1576708.333,-0.295
1576711.111,-0.24
1576713.889,-0.255
1576716.667,-0.295
1576719.444,-0.31
1576722.222,-0.295
1576725,-0.26
1576727.778,-0.255
1576730.556,-0.275
1576733.333,-0.35
1576736.111,-0.38
1576738.889,-0.36
1576741.667,-0.32
1576744.444,-0.325
1576747.222,-0.345
1576750,-0.355
1576752.778,-0.36
1576755.556,-0.36
1576758.333,-0.345
1576761.111,-0.35
1576763.889,-0.365
1576766.667,-0.365
1576769.444,-0.36
1576772.222,-0.345
1576775,-0.32
1576777.778,-0.31
1576780.556,-0.275
1576783.333,-0.265
1576786.111,-0.27
1576788.889,-0.24
1576791.667,-0.225
1576794.444,-0.21
1576797.222,-0.175
1576800,-0.145
1576802.778,-0.1
1576805.556,-0.06
1576808.333,-0.005
1576811.111,0.03
1576813.889,0.045
1576816.667,0.025
1576819.444,0.045
1576822.222,0.11
1576825,0.175
1576827.778,0.23
1576830.556,0.255
1576833.333,0.235
1576836.111,0.23
1576838.889,0.26
1576841.667,0.315
1576844.444,0.38
1576847.222,0.405
1576850,0.4
1576852.778,0.425
1576855.556,0.475
1576858.333,0.52
1576861.111,0.54
1576863.889,0.545
1576866.667,0.555
1576869.444,0.585
1576872.222,0.645
1576875,0.71
1576877.778,0.74
1576880.556,0.725
1576883.333,0.73
1576886.111,0.755
1576888.889,0.76
1576891.667,0.75
1576894.444,0.685
1576897.222,0.63
1576900,0.56
1576902.778,0.525
1576905.556,0.505
1576908.333,0.47
1576911.111,0.44
1576913.889,0.425
1576916.667,0.405
1576919.444,0.37
1576922.222,0.3
1576925,0.245
1576927.778,0.2
1576930.556,0.145
1576933.333,0.055
1576936.111,-0.03
1576938.889,-0.085
1576941.667,-0.115
1576944.444,-0.15
1576947.222,-0.205
1576950,-0.26
1576952.778,-0.29
1576955.556,-0.3
1576958.333,-0.325
1576961.111,-0.355
1576963.889,-0.385
1576966.667,-0.405
1576969.444,-0.43
1576972.222,-0.445
1576975,-0.41
1576977.778,-0.365
1576980.556,-0.34
1576983.333,-0.35
1576986.111,-0.375
1576988.889,-0.41
1576991.667,-0.44
1576994.444,-0.455
1576997.222,-0.455
1577000,-0.425
1577002.778,-0.4
1577005.556,-0.405
1577008.333,-0.44
1577011.111,-0.47
1577013.889,-0.49
1577016.667,-0.5
1577019.444,-0.505
1577022.222,-0.505
1577025,-0.52
1577027.778,-0.515
1577030.556,-0.51
1577033.333,-0.535
1577036.111,-0.57
1577038.889,-0.58
1577041.667,-0.535
1577044.444,-0.485
1577047.222,-0.49
1577050,-0.525
1577052.778,-0.535
1577055.556,-0.515
1577058.333,-0.465
1577061.111,-0.445
1577063.889,-0.43
1577066.667,-0.43
1577069.444,-0.41
1577072.222,-0.385
1577075,-0.35
1577077.778,-0.32
1577080.556,-0.3
1577083.333,-0.275
1577086.111,-0.24
1577088.889,-0.2
1577091.667,-0.15
1577094.444,-0.075
1577097.222,-0.03
1577100,0.01
1577102.778,0.02
1577105.556,0.02
1577108.333,0.04
1577111.111,0.06
1577113.889,0.11
1577116.667,0.155
1577119.444,0.19
1577122.222,0.22
1577125,0.25
1577127.778,0.265
1577130.556,0.29
1577133.333,0.31
1577136.111,0.325
1577138.889,0.335
1577141.667,0.34
1577144.444,0.375
1577147.222,0.41
1577150,0.455
1577152.778,0.485
1577155.556,0.52
1577158.333,0.56
1577161.111,0.59
1577163.889,0.645
1577166.667,0.69
1577169.444,0.695
1577172.222,0.67
1577175,0.62
1577177.778,0.54
1577180.556,0.505
1577183.333,0.485
1577186.111,0.47
1577188.889,0.435
1577191.667,0.44
1577194.444,0.43
1577197.222,0.4
1577200,0.37
1577202.778,0.31
1577205.556,0.285
1577208.333,0.255
1577211.111,0.21
1577213.889,0.16
1577216.667,0.085
1577219.444,0.005
1577222.222,-0.04
1577225,-0.09
1577227.778,-0.135
1577230.556,-0.19
1577233.333,-0.26
1577236.111,-0.31
1577238.889,-0.34
1577241.667,-0.37
1577244.444,-0.395
1577247.222,-0.445
1577250,-0.465
1577252.778,-0.475
1577255.556,-0.47
1577258.333,-0.43
1577261.111,-0.41
1577263.889,-0.41
1577266.667,-0.425
1577269.444,-0.425
1577272.222,-0.41
1577275,-0.38
1577277.778,-0.37
1577280.556,-0.385
1577283.333,-0.42
1577286.111,-0.455
1577288.889,-0.44
1577291.667,-0.425
1577294.444,-0.45
1577297.222,-0.47
1577300,-0.495
1577302.778,-0.5
1577305.556,-0.505
1577308.333,-0.505
1577311.111,-0.49
1577313.889,-0.5
1577316.667,-0.53
1577319.444,-0.55
1577322.222,-0.565
1577325,-0.55
1577327.778,-0.54
1577330.556,-0.535
1577333.333,-0.54
1577336.111,-0.56
1577338.889,-0.56
1577341.667,-0.54
1577344.444,-0.51
1577347.222,-0.515
1577350,-0.515
1577352.778,-0.515
1577355.556,-0.5
1577358.333,-0.48
1577361.111,-0.46
1577363.889,-0.445
1577366.667,-0.435
1577369.444,-0.4
1577372.222,-0.365
1577375,-0.325
1577377.778,-0.295
1577380.556,-0.3
1577383.333,-0.275
1577386.111,-0.255
1577388.889,-0.205
1577391.667,-0.145
1577394.444,-0.115
1577397.222,-0.085
1577400,-0.085
1577402.778,-0.065
1577405.556,-0.04
1577408.333,0.005
1577411.111,0.03
1577413.889,0.03
1577416.667,0.04
1577419.444,0.055
1577422.222,0.085
1577425,0.115
1577427.778,0.155
1577430.556,0.185
1577433.333,0.22
1577436.111,0.255
1577438.889,0.29
1577441.667,0.32
1577444.444,0.34
1577447.222,0.33
1577450,0.345
1577452.778,0.33
1577455.556,0.32
1577458.333,0.29
1577461.111,0.275
1577463.889,0.27
1577466.667,0.26
1577469.444,0.255
1577472.222,0.24
1577475,0.235
1577477.778,0.24
1577480.556,0.245
1577483.333,0.225
1577486.111,0.205
1577488.889,0.215
1577491.667,0.19
1577494.444,0.18
1577497.222,0.13
1577500,0.065
1577502.778,0.005
1577505.556,-0.07
1577508.333,-0.135
1577511.111,-0.18
1577513.889,-0.215
1577516.667,-0.21
1577519.444,-0.23
1577522.222,-0.25
1577525,-0.26
1577527.778,-0.285
1577530.556,-0.29
1577533.333,-0.31
1577536.111,-0.335
1577538.889,-0.34
1577541.667,-0.34
1577544.444,-0.35
1577547.222,-0.35
1577550,-0.37
1577552.778,-0.36
1577555.556,-0.38
1577558.333,-0.37
1577561.111,-0.36
1577563.889,-0.35
1577566.667,-0.37
1577569.444,-0.41
1577572.222,-0.415
1577575,-0.435
1577577.778,-0.43
1577580.556,-0.45
1577583.333,-0.465
1577586.111,-0.475
1577588.889,-0.495
1577591.667,-0.5
1577594.444,-0.51
1577597.222,-0.535
1577600,-0.565
1577602.778,-0.595
1577605.556,-0.59
1577608.333,-0.58
1577611.111,-0.57
1577613.889,-0.585
1577616.667,-0.595
1577619.444,-0.61
1577622.222,-0.635
1577625,-0.635
1577627.778,-0.63
1577630.556,-0.62
1577633.333,-0.62
1577636.111,-0.64
1577638.889,-0.645
1577641.667,-0.605
1577644.444,-0.56
1577647.222,-0.535
1577650,-0.54
1577652.778,-0.525
1577655.556,-0.5
1577658.333,-0.45
1577661.111,-0.41
1577663.889,-0.395
1577666.667,-0.365
1577669.444,-0.365
1577672.222,-0.345
1577675,-0.31
1577677.778,-0.28
1577680.556,-0.265
1577683.333,-0.245
1577686.111,-0.23
1577688.889,-0.175
1577691.667,-0.145
1577694.444,-0.15
1577697.222,-0.15
1577700,-0.145
1577702.778,-0.115
1577705.556,-0.09
1577708.333,-0.07
1577711.111,-0.065
1577713.889,-0.055
1577716.667,-0.03
1577719.444,0.01
1577722.222,0.025
1577725,0.01
1577727.778,-0.02
1577730.556,-0.065
1577733.333,-0.1
1577736.111,-0.13
1577738.889,-0.14
1577741.667,-0.135
1577744.444,-0.125
1577747.222,-0.12
1577750,-0.13
1577752.778,-0.145
1577755.556,-0.17
1577758.333,-0.165
1577761.111,-0.19
1577763.889,-0.2
1577766.667,-0.225
1577769.444,-0.265
1577772.222,-0.32
1577775,-0.34
1577777.778,-0.36
1577780.556,-0.38
1577783.333,-0.39
1577786.111,-0.395
1577788.889,-0.4
1577791.667,-0.42
1577794.444,-0.45
1577797.222,-0.445
1577800,-0.445
1577802.778,-0.445
1577805.556,-0.435
1577808.333,-0.425
1577811.111,-0.4
1577813.889,-0.41
1577816.667,-0.42
1577819.444,-0.42
1577822.222,-0.38
1577825,-0.33
1577827.778,-0.315
1577830.556,-0.315
1577833.333,-0.36
1577836.111,-0.36
1577838.889,-0.37
1577841.667,-0.365
1577844.444,-0.375
1577847.222,-0.38
1577850,-0.425
1577852.778,-0.43
1577855.556,-0.425
1577858.333,-0.43
1577861.111,-0.42
1577863.889,-0.43
1577866.667,-0.45
1577869.444,-0.48
1577872.222,-0.485
1577875,-0.49
1577877.778,-0.52
1577880.556,-0.54
1577883.333,-0.565
1577886.111,-0.575
1577888.889,-0.575
1577891.667,-0.555
1577894.444,-0.54
1577897.222,-0.545
1577900,-0.56
1577902.778,-0.595
1577905.556,-0.6
1577908.333,-0.61
1577911.111,-0.605
1577913.889,-0.61
1577916.667,-0.59
1577919.444,-0.565
1577922.222,-0.53
1577925,-0.525
1577927.778,-0.55
1577930.556,-0.52
1577933.333,-0.515
1577936.111,-0.505
1577938.889,-0.49
1577941.667,-0.46
1577944.444,-0.405
1577947.222,-0.37
1577950,-0.335
1577952.778,-0.33
1577955.556,-0.33
1577958.333,-0.335
1577961.111,-0.33
1577963.889,-0.315
1577966.667,-0.305
1577969.444,-0.305
1577972.222,-0.28
1577975,-0.22
1577977.778,-0.185
1577980.556,-0.155
1577983.333,-0.155
1577986.111,-0.15
1577988.889,-0.16
1577991.667,-0.125
1577994.444,-0.1
1577997.222,-0.09
1578000,-0.125
1578002.778,-0.19
1578005.556,-0.24
1578008.333,-0.26
1578011.111,-0.26
1578013.889,-0.255
1578016.667,-0.245
1578019.444,-0.245
1578022.222,-0.22
1578025,-0.22
1578027.778,-0.235
1578030.556,-0.245
1578033.333,-0.25
1578036.111,-0.27
1578038.889,-0.27
1578041.667,-0.27
1578044.444,-0.285
1578047.222,-0.33
1578050,-0.355
1578052.778,-0.365
1578055.556,-0.35
1578058.333,-0.32
1578061.111,-0.31
1578063.889,-0.32
1578066.667,-0.345
1578069.444,-0.39
1578072.222,-0.4
1578075,-0.38
1578077.778,-0.365
1578080.556,-0.385
1578083.333,-0.42
1578086.111,-0.44
1578088.889,-0.455
1578091.667,-0.445
1578094.444,-0.425
1578097.222,-0.42
1578100,-0.405
1578102.778,-0.38
1578105.556,-0.34
1578108.333,-0.335
1578111.111,-0.345
1578113.889,-0.375
1578116.667,-0.41
1578119.444,-0.42
1578122.222,-0.435
1578125,-0.435
1578127.778,-0.425
1578130.556,-0.395
1578133.333,-0.38
1578136.111,-0.365
1578138.889,-0.375
1578141.667,-0.395
1578144.444,-0.42
1578147.222,-0.465
1578150,-0.475
1578152.778,-0.49
1578155.556,-0.495
1578158.333,-0.485
1578161.111,-0.46
1578163.889,-0.48
1578166.667,-0.515
1578169.444,-0.525
1578172.222,-0.515
1578175,-0.5
1578177.778,-0.485
1578180.556,-0.48
1578183.333,-0.495
1578186.111,-0.51
1578188.889,-0.54
1578191.667,-0.58
1578194.444,-0.575
1578197.222,-0.575
1578200,-0.575
1578202.778,-0.565
1578205.556,-0.53
1578208.333,-0.525
1578211.111,-0.515
1578213.889,-0.49
1578216.667,-0.505
1578219.444,-0.505
1578222.222,-0.52
1578225,-0.475
1578227.778,-0.415
1578230.556,-0.355
1578233.333,-0.29
1578236.111,-0.27
1578238.889,-0.25
1578241.667,-0.27
1578244.444,-0.27
1578247.222,-0.295
1578250,-0.285
1578252.778,-0.25
1578255.556,-0.205
1578258.333,-0.175
1578261.111,-0.16
1578263.889,-0.16
1578266.667,-0.175
1578269.444,-0.2
1578272.222,-0.23
1578275,-0.23
1578277.778,-0.235
1578280.556,-0.22
1578283.333,-0.19
1578286.111,-0.185
1578288.889,-0.215
1578291.667,-0.26
1578294.444,-0.28
1578297.222,-0.285
1578300,-0.3
1578302.778,-0.315
1578305.556,-0.31
1578308.333,-0.31
1578311.111,-0.31
1578313.889,-0.31
1578316.667,-0.31
1578319.444,-0.34
1578322.222,-0.34
1578325,-0.34
1578327.778,-0.335
1578330.556,-0.37
1578333.333,-0.39
1578336.111,-0.43
1578338.889,-0.46
1578341.667,-0.47
1578344.444,-0.445
1578347.222,-0.425
1578350,-0.43
1578352.778,-0.44
1578355.556,-0.465
1578358.333,-0.475
1578361.111,-0.485
1578363.889,-0.5
1578366.667,-0.52
1578369.444,-0.5
1578372.222,-0.465
1578375,-0.435
1578377.778,-0.425
1578380.556,-0.43
1578383.333,-0.45
1578386.111,-0.43
1578388.889,-0.4
1578391.667,-0.385
1578394.444,-0.39
1578397.222,-0.415
1578400,-0.46
1578402.778,-0.485
1578405.556,-0.47
1578408.333,-0.44
1578411.111,-0.41
1578413.889,-0.41
1578416.667,-0.425
1578419.444,-0.445
1578422.222,-0.475
1578425,-0.505
1578427.778,-0.49
1578430.556,-0.465
1578433.333,-0.435
1578436.111,-0.44
1578438.889,-0.44
1578441.667,-0.45
1578444.444,-0.46
1578447.222,-0.475
1578450,-0.47
1578452.778,-0.455
1578455.556,-0.46
1578458.333,-0.46
1578461.111,-0.465
1578463.889,-0.48
1578466.667,-0.5
1578469.444,-0.51
1578472.222,-0.505
1578475,-0.47
1578477.778,-0.425
1578480.556,-0.39
1578483.333,-0.385
1578486.111,-0.405
1578488.889,-0.385
1578491.667,-0.39
1578494.444,-0.375
1578497.222,-0.35
1578500,-0.335
1578502.778,-0.3
1578505.556,-0.26
1578508.333,-0.22
1578511.111,-0.2
1578513.889,-0.185
1578516.667,-0.19
1578519.444,-0.205
1578522.222,-0.215
1578525,-0.19
1578527.778,-0.165
1578530.556,-0.16
1578533.333,-0.16
1578536.111,-0.15
1578538.889,-0.17
1578541.667,-0.15
1578544.444,-0.12
1578547.222,-0.12
1578550,-0.125
1578552.778,-0.145
1578555.556,-0.15
1578558.333,-0.15
1578561.111,-0.155
1578563.889,-0.165
1578566.667,-0.195
1578569.444,-0.23
1578572.222,-0.23
1578575,-0.245
1578577.778,-0.22
1578580.556,-0.21
1578583.333,-0.205
1578586.111,-0.22
1578588.889,-0.23
1578591.667,-0.25
1578594.444,-0.26
1578597.222,-0.295
1578600,-0.295
1578602.778,-0.3
1578605.556,-0.305
1578608.333,-0.285
1578611.111,-0.3
1578613.889,-0.33
1578616.667,-0.325
1578619.444,-0.335
1578622.222,-0.34
1578625,-0.33
1578627.778,-0.345
1578630.556,-0.355
1578633.333,-0.395
1578636.111,-0.44
1578638.889,-0.43
1578641.667,-0.42
1578644.444,-0.425
1578647.222,-0.43
1578650,-0.43
1578652.778,-0.445
1578655.556,-0.395
1578658.333,-0.36
1578661.111,-0.335
1578663.889,-0.34
1578666.667,-0.345
1578669.444,-0.34
1578672.222,-0.34
1578675,-0.34
1578677.778,-0.335
1578680.556,-0.345
1578683.333,-0.385
1578686.111,-0.405
1578688.889,-0.435
1578691.667,-0.465
1578694.444,-0.475
1578697.222,-0.47
1578700,-0.455
1578702.778,-0.45
1578705.556,-0.46
1578708.333,-0.47
1578711.111,-0.475
1578713.889,-0.49
1578716.667,-0.505
1578719.444,-0.53
1578722.222,-0.53
1578725,-0.515
1578727.778,-0.515
1578730.556,-0.515
1578733.333,-0.53
1578736.111,-0.545
1578738.889,-0.535
1578741.667,-0.53
1578744.444,-0.54
1578747.222,-0.565
1578750,-0.565
1578752.778,-0.56
1578755.556,-0.525
1578758.333,-0.51
1578761.111,-0.52
1578763.889,-0.515
1578766.667,-0.48
1578769.444,-0.41
1578772.222,-0.36
1578775,-0.335
1578777.778,-0.335
1578780.556,-0.34
1578783.333,-0.34
1578786.111,-0.325
1578788.889,-0.305
1578791.667,-0.305
1578794.444,-0.285
1578797.222,-0.285
1578800,-0.3
1578802.778,-0.31
1578805.556,-0.27
1578808.333,-0.215
1578811.111,-0.175
1578813.889,-0.175
1578816.667,-0.19
1578819.444,-0.18
1578822.222,-0.165
1578825,-0.175
1578827.778,-0.17
1578830.556,-0.2
1578833.333,-0.25
1578836.111,-0.28
1578838.889,-0.255
1578841.667,-0.225
1578844.444,-0.22
1578847.222,-0.245
1578850,-0.275
1578852.778,-0.27
1578855.556,-0.26
1578858.333,-0.25
1578861.111,-0.245
1578863.889,-0.23
1578866.667,-0.22
1578869.444,-0.23
1578872.222,-0.235
1578875,-0.23
1578877.778,-0.22
1578880.556,-0.255
1578883.333,-0.295
1578886.111,-0.32
1578888.889,-0.315
1578891.667,-0.3
1578894.444,-0.285
1578897.222,-0.31
1578900,-0.35
1578902.778,-0.375
1578905.556,-0.37
1578908.333,-0.355
1578911.111,-0.35
1578913.889,-0.365
1578916.667,-0.365
1578919.444,-0.37
1578922.222,-0.37
1578925,-0.365
1578927.778,-0.325
1578930.556,-0.295
1578933.333,-0.285
1578936.111,-0.3
1578938.889,-0.285
1578941.667,-0.25
1578944.444,-0.215
1578947.222,-0.21
1578950,-0.235
1578952.778,-0.255
1578955.556,-0.26
1578958.333,-0.265
1578961.111,-0.265
1578963.889,-0.275
1578966.667,-0.295
1578969.444,-0.33
1578972.222,-0.32
1578975,-0.31
1578977.778,-0.325
1578980.556,-0.315
1578983.333,-0.32
1578986.111,-0.32
1578988.889,-0.34
1578991.667,-0.35
1578994.444,-0.37
1578997.222,-0.385
1579000,-0.415
1579002.778,-0.425
1579005.556,-0.415
1579008.333,-0.415
1579011.111,-0.42
1579013.889,-0.43
1579016.667,-0.445
1579019.444,-0.44
1579022.222,-0.45
1579025,-0.44
1579027.778,-0.43
1579030.556,-0.425
1579033.333,-0.435
1579036.111,-0.43
1579038.889,-0.445
1579041.667,-0.425
1579044.444,-0.43
1579047.222,-0.42
1579050,-0.41
1579052.778,-0.385
1579055.556,-0.335
1579058.333,-0.295
1579061.111,-0.27
1579063.889,-0.265
1579066.667,-0.255
1579069.444,-0.26
1579072.222,-0.27
1579075,-0.275
1579077.778,-0.265
1579080.556,-0.27
1579083.333,-0.29
1579086.111,-0.28
1579088.889,-0.255
1579091.667,-0.235
1579094.444,-0.21
1579097.222,-0.205
1579100,-0.2
1579102.778,-0.21
1579105.556,-0.215
1579108.333,-0.215
1579111.111,-0.245
1579113.889,-0.27
1579116.667,-0.28
1579119.444,-0.27
1579122.222,-0.27
1579125,-0.26
1579127.778,-0.27
1579130.556,-0.29
1579133.333,-0.325
1579136.111,-0.33
1579138.889,-0.32
1579141.667,-0.29
1579144.444,-0.32
1579147.222,-0.325
1579150,-0.345
1579152.778,-0.35
1579155.556,-0.33
1579158.333,-0.33
1579161.111,-0.325
1579163.889,-0.33
1579166.667,-0.345
1579169.444,-0.38
1579172.222,-0.4
1579175,-0.415
1579177.778,-0.415
1579180.556,-0.42
1579183.333,-0.42
1579186.111,-0.425
1579188.889,-0.43
1579191.667,-0.425
1579194.444,-0.4
1579197.222,-0.385
1579200,-0.375
1579202.778,-0.38
1579205.556,-0.35
1579208.333,-0.33
1579211.111,-0.305
1579213.889,-0.28
1579216.667,-0.285
1579219.444,-0.285
1579222.222,-0.275
1579225,-0.275
1579227.778,-0.275
1579230.556,-0.265
1579233.333,-0.265
1579236.111,-0.28
1579238.889,-0.275
1579241.667,-0.255
1579244.444,-0.255
1579247.222,-0.28
1579250,-0.31
1579252.778,-0.315
1579255.556,-0.325
1579258.333,-0.32
1579261.111,-0.32
1579263.889,-0.325
1579266.667,-0.33
1579269.444,-0.31
1579272.222,-0.31
1579275,-0.3
1579277.778,-0.305
1579280.556,-0.305
1579283.333,-0.335
1579286.111,-0.365
1579288.889,-0.375
1579291.667,-0.365
1579294.444,-0.34
1579297.222,-0.34
1579300,-0.35
1579302.778,-0.35
1579305.556,-0.325
1579308.333,-0.31
1579311.111,-0.29
1579313.889,-0.28
1579316.667,-0.255
1579319.444,-0.24
1579322.222,-0.205
1579325,-0.17
1579327.778,-0.14
1579330.556,-0.135
1579333.333,-0.175
1579336.111,-0.175
1579338.889,-0.16
1579341.667,-0.13
1579344.444,-0.115
1579347.222,-0.125
1579350,-0.13
1579352.778,-0.14
1579355.556,-0.135
1579358.333,-0.115
1579361.111,-0.105
1579363.889,-0.115
1579366.667,-0.12
1579369.444,-0.145
1579372.222,-0.14
1579375,-0.13
1579377.778,-0.135
1579380.556,-0.17
1579383.333,-0.2
1579386.111,-0.225
1579388.889,-0.215
1579391.667,-0.175
1579394.444,-0.18
1579397.222,-0.205
1579400,-0.225
1579402.778,-0.24
1579405.556,-0.245
1579408.333,-0.26
1579411.111,-0.255
1579413.889,-0.28
1579416.667,-0.3
1579419.444,-0.32
1579422.222,-0.325
1579425,-0.325
1579427.778,-0.325
1579430.556,-0.34
1579433.333,-0.365
1579436.111,-0.39
1579438.889,-0.385
1579441.667,-0.385
1579444.444,-0.39
1579447.222,-0.405
1579450,-0.42
1579452.778,-0.42
1579455.556,-0.425
1579458.333,-0.415
1579461.111,-0.42
1579463.889,-0.42
1579466.667,-0.43
1579469.444,-0.42
1579472.222,-0.38
1579475,-0.345
1579477.778,-0.32
1579480.556,-0.315
1579483.333,-0.33
1579486.111,-0.355
1579488.889,-0.35
1579491.667,-0.34
1579494.444,-0.32
1579497.222,-0.33
1579500,-0.345
1579502.778,-0.365
1579505.556,-0.35
1579508.333,-0.35
1579511.111,-0.36
1579513.889,-0.365
1579516.667,-0.385
1579519.444,-0.385
1579522.222,-0.38
1579525,-0.365
1579527.778,-0.375
1579530.556,-0.39
1579533.333,-0.38
1579536.111,-0.38
1579538.889,-0.38
1579541.667,-0.385
1579544.444,-0.395
1579547.222,-0.415
1579550,-0.41
1579552.778,-0.435
1579555.556,-0.42
1579558.333,-0.4
1579561.111,-0.375
1579563.889,-0.365
1579566.667,-0.385
1579569.444,-0.375
1579572.222,-0.345
1579575,-0.3
1579577.778,-0.27
1579580.556,-0.265
1579583.333,-0.265
1579586.111,-0.27
1579588.889,-0.25
1579591.667,-0.23
1579594.444,-0.22
1579597.222,-0.21
1579600,-0.205
1579602.778,-0.19
1579605.556,-0.165
1579608.333,-0.135
1579611.111,-0.14
1579613.889,-0.15
1579616.667,-0.175
1579619.444,-0.18
1579622.222,-0.135
1579625,-0.12
1579627.778,-0.105
1579630.556,-0.11
1579633.333,-0.115
1579636.111,-0.12
1579638.889,-0.105
1579641.667,-0.1
1579644.444,-0.1
1579647.222,-0.085
1579650,-0.09
1579652.778,-0.09
1579655.556,-0.115
1579658.333,-0.135
1579661.111,-0.165
1579663.889,-0.185
1579666.667,-0.18
1579669.444,-0.18
1579672.222,-0.175
1579675,-0.17
1579677.778,-0.18
1579680.556,-0.205
1579683.333,-0.225
1579686.111,-0.245
1579688.889,-0.24
1579691.667,-0.245
1579694.444,-0.275
1579697.222,-0.305
1579700,-0.335
1579702.778,-0.365
1579705.556,-0.36
1579708.333,-0.38
1579711.111,-0.37
1579713.889,-0.365
1579716.667,-0.375
1579719.444,-0.395
1579722.222,-0.4
1579725,-0.41
1579727.778,-0.425
1579730.556,-0.44
1579733.333,-0.45
1579736.111,-0.445
1579738.889,-0.43
1579741.667,-0.415
1579744.444,-0.39
1579747.222,-0.365
1579750,-0.355
1579752.778,-0.34
1579755.556,-0.32
1579758.333,-0.3
1579761.111,-0.32
1579763.889,-0.33
1579766.667,-0.355
1579769.444,-0.345
1579772.222,-0.325
1579775,-0.33
1579777.778,-0.325
1579780.556,-0.345
1579783.333,-0.36
1579786.111,-0.37
1579788.889,-0.37
1579791.667,-0.355
1579794.444,-0.365
1579797.222,-0.355
1579800,-0.375
1579802.778,-0.37
1579805.556,-0.34
1579808.333,-0.33
1579811.111,-0.325
1579813.889,-0.345
1579816.667,-0.37
1579819.444,-0.36
1579822.222,-0.35
1579825,-0.345
1579827.778,-0.345
1579830.556,-0.355
1579833.333,-0.37
1579836.111,-0.36
1579838.889,-0.36
1579841.667,-0.35
1579844.444,-0.33
1579847.222,-0.315
1579850,-0.31
1579852.778,-0.295
1579855.556,-0.275
1579858.333,-0.235
1579861.111,-0.21
1579863.889,-0.205
1579866.667,-0.205
1579869.444,-0.185
1579872.222,-0.16
1579875,-0.115
1579877.778,-0.115
1579880.556,-0.105
1579883.333,-0.125
1579886.111,-0.125
1579888.889,-0.1
1579891.667,-0.075
1579894.444,-0.06
1579897.222,-0.07
1579900,-0.065
1579902.778,-0.07
1579905.556,-0.055
1579908.333,-0.045
1579911.111,-0.02
1579913.889,-0.005
1579916.667,-0.005
1579919.444,0.005
1579922.222,0.005
1579925,0.03
1579927.778,0.005
1579930.556,-0.02
1579933.333,-0.05
1579936.111,-0.07
1579938.889,-0.06
1579941.667,-0.045
1579944.444,-0.065
1579947.222,-0.075
1579950,-0.09
1579952.778,-0.1
1579955.556,-0.11
1579958.333,-0.125
1579961.111,-0.14
1579963.889,-0.17
1579966.667,-0.2
1579969.444,-0.205
1579972.222,-0.225
1579975,-0.225
1579977.778,-0.23
1579980.556,-0.265
1579983.333,-0.28
1579986.111,-0.285
1579988.889,-0.275
1579991.667,-0.265
1579994.444,-0.28
1579997.222,-0.295
1580000,-0.315
1580002.778,-0.32
1580005.556,-0.315
1580008.333,-0.31
1580011.111,-0.3
1580013.889,-0.3
1580016.667,-0.3
1580019.444,-0.305
1580022.222,-0.275
1580025,-0.24
1580027.778,-0.24
1580030.556,-0.23
1580033.333,-0.225
1580036.111,-0.23
1580038.889,-0.215
1580041.667,-0.19
1580044.444,-0.195
1580047.222,-0.22
1580050,-0.225
1580052.778,-0.25
1580055.556,-0.23
1580058.333,-0.24
1580061.111,-0.23
1580063.889,-0.24
1580066.667,-0.27
1580069.444,-0.29
1580072.222,-0.29
1580075,-0.315
1580077.778,-0.29
1580080.556,-0.315
1580083.333,-0.32
1580086.111,-0.32
1580088.889,-0.315
1580091.667,-0.315
1580094.444,-0.31
1580097.222,-0.32
1580100,-0.34
1580102.778,-0.34
1580105.556,-0.32
1580108.333,-0.315
1580111.111,-0.32
1580113.889,-0.3
1580116.667,-0.31
1580119.444,-0.295
1580122.222,-0.275
1580125,-0.255
1580127.778,-0.25
1580130.556,-0.26
1580133.333,-0.255
1580136.111,-0.25
1580138.889,-0.225
1580141.667,-0.215
1580144.444,-0.18
1580147.222,-0.175
1580150,-0.165
1580152.778,-0.165
1580155.556,-0.13
1580158.333,-0.115
1580161.111,-0.1
1580163.889,-0.1
1580166.667,-0.085
1580169.444,-0.08
1580172.222,-0.06
1580175,-0.035
1580177.778,-0.02
1580180.556,-0.02
1580183.333,-0.015
1580186.111,-0.02
1580188.889,-0.015
1580191.667,0.015
1580194.444,0.025
1580197.222,0.025
1580200,0.01
1580202.778,0.005
1580205.556,0.015
1580208.333,0.005
1580211.111,-0.005
1580213.889,-0.025
1580216.667,-0.055
1580219.444,-0.055
1580222.222,-0.04
1580225,-0.045
1580227.778,-0.035
1580230.556,-0.06
1580233.333,-0.095
1580236.111,-0.105
1580238.889,-0.115
1580241.667,-0.14
1580244.444,-0.15
1580247.222,-0.17
1580250,-0.205
1580252.778,-0.225
1580255.556,-0.21
1580258.333,-0.215
1580261.111,-0.22
1580263.889,-0.225
1580266.667,-0.235
1580269.444,-0.26
1580272.222,-0.255
1580275,-0.26
1580277.778,-0.265
1580280.556,-0.28
1580283.333,-0.285
1580286.111,-0.29
1580288.889,-0.265
1580291.667,-0.285
1580294.444,-0.255
1580297.222,-0.255
1580300,-0.25
1580302.778,-0.25
1580305.556,-0.235
1580308.333,-0.225
1580311.111,-0.215
1580313.889,-0.235
1580316.667,-0.25
1580319.444,-0.25
1580322.222,-0.24
1580325,-0.25
1580327.778,-0.26
1580330.556,-0.29
1580333.333,-0.31
1580336.111,-0.315
1580338.889,-0.31
1580341.667,-0.315
1580344.444,-0.32
1580347.222,-0.335
1580350,-0.355
1580352.778,-0.355
1580355.556,-0.355
1580358.333,-0.35
1580361.111,-0.34
1580363.889,-0.345
1580366.667,-0.365
1580369.444,-0.36
1580372.222,-0.335
1580375,-0.33
1580377.778,-0.3
1580380.556,-0.3
1580383.333,-0.315
1580386.111,-0.3
1580388.889,-0.26
1580391.667,-0.22
1580394.444,-0.205
1580397.222,-0.195
1580400,-0.205
1580402.778,-0.19
1580405.556,-0.155
1580408.333,-0.11
1580411.111,-0.075
1580413.889,-0.06
1580416.667,-0.055
1580419.444,-0.03
1580422.222,0.01
1580425,0.025
1580427.778,0.05
1580430.556,0.045
1580433.333,0.075
1580436.111,0.095
1580438.889,0.135
1580441.667,0.155
1580444.444,0.16
1580447.222,0.175
1580450,0.18
1580452.778,0.195
1580455.556,0.23
1580458.333,0.27
1580461.111,0.285
1580463.889,0.295
1580466.667,0.295
1580469.444,0.28
1580472.222,0.265
1580475,0.255
1580477.778,0.23
1580480.556,0.205
1580483.333,0.17
1580486.111,0.16
1580488.889,0.17
1580491.667,0.155
1580494.444,0.15
1580497.222,0.115
1580500,0.055
1580502.778,0.005
1580505.556,-0.05
1580508.333,-0.095
1580511.111,-0.145
1580513.889,-0.18
1580516.667,-0.205
1580519.444,-0.23
1580522.222,-0.245
1580525,-0.245
1580527.778,-0.25
1580530.556,-0.3
1580533.333,-0.3
1580536.111,-0.33
1580538.889,-0.315
1580541.667,-0.315
1580544.444,-0.34
1580547.222,-0.35
1580550,-0.36
1580552.778,-0.37
1580555.556,-0.36
1580558.333,-0.355
1580561.111,-0.35
1580563.889,-0.355
1580566.667,-0.345
1580569.444,-0.325
1580572.222,-0.3
1580575,-0.29
1580577.778,-0.3
1580580.556,-0.32
1580583.333,-0.335
1580586.111,-0.365
1580588.889,-0.345
1580591.667,-0.35
1580594.444,-0.375
1580597.222,-0.38
1580600,-0.37
1580602.778,-0.365
1580605.556,-0.36
1580608.333,-0.35
1580611.111,-0.34
1580613.889,-0.375
1580616.667,-0.38
1580619.444,-0.375
1580622.222,-0.365
1580625,-0.37
1580627.778,-0.365
1580630.556,-0.355
1580633.333,-0.35
1580636.111,-0.355
1580638.889,-0.31
1580641.667,-0.275
1580644.444,-0.255
1580647.222,-0.26
1580650,-0.26
1580652.778,-0.24
1580655.556,-0.21
1580658.333,-0.175
1580661.111,-0.16
1580663.889,-0.155
1580666.667,-0.14
1580669.444,-0.13
1580672.222,-0.105
1580675,-0.06
1580677.778,-0.025
1580680.556,0.005
1580683.333,0.015
1580686.111,0.045
1580688.889,0.055
1580691.667,0.085
1580694.444,0.12
1580697.222,0.135
1580700,0.175
1580702.778,0.195
1580705.556,0.225
1580708.333,0.275
1580711.111,0.28
1580713.889,0.3
1580716.667,0.32
1580719.444,0.355
1580722.222,0.385
1580725,0.385
1580727.778,0.365
1580730.556,0.385
1580733.333,0.41
1580736.111,0.42
1580738.889,0.425
1580741.667,0.42
1580744.444,0.395
1580747.222,0.37
1580750,0.32
1580752.778,0.305
1580755.556,0.3
1580758.333,0.28
1580761.111,0.25
1580763.889,0.21
1580766.667,0.15
1580769.444,0.09
1580772.222,0.035
1580775,0.01
1580777.778,-0.045
1580780.556,-0.09
1580783.333,-0.13
1580786.111,-0.145
1580788.889,-0.155
1580791.667,-0.17
1580794.444,-0.18
1580797.222,-0.21
1580800,-0.215
1580802.778,-0.235
1580805.556,-0.255
1580808.333,-0.275
1580811.111,-0.3
1580813.889,-0.315
1580816.667,-0.32
1580819.444,-0.32
1580822.222,-0.305
1580825,-0.3
1580827.778,-0.285
1580830.556,-0.305
1580833.333,-0.3
1580836.111,-0.305
1580838.889,-0.285
1580841.667,-0.265
1580844.444,-0.26
1580847.222,-0.27
1580850,-0.275
1580852.778,-0.28
1580855.556,-0.295
1580858.333,-0.28
1580861.111,-0.285
1580863.889,-0.295
1580866.667,-0.28
1580869.444,-0.28
1580872.222,-0.265
1580875,-0.245
1580877.778,-0.235
1580880.556,-0.25
1580883.333,-0.27
1580886.111,-0.285
1580888.889,-0.28
1580891.667,-0.26
1580894.444,-0.27
1580897.222,-0.26
1580900,-0.255
1580902.778,-0.265
1580905.556,-0.22
1580908.333,-0.205
1580911.111,-0.21
1580913.889,-0.22
1580916.667,-0.21
1580919.444,-0.19
1580922.222,-0.17
1580925,-0.125
1580927.778,-0.105
1580930.556,-0.1
1580933.333,-0.075
1580936.111,-0.06
1580938.889,-0.04
1580941.667,-0.025
1580944.444,-0.005
1580947.222,0.035
1580950,0.06
1580952.778,0.08
1580955.556,0.09
1580958.333,0.11
1580961.111,0.15
1580963.889,0.185
1580966.667,0.215
1580969.444,0.245
1580972.222,0.27
1580975,0.32
1580977.778,0.33
1580980.556,0.315
1580983.333,0.345
1580986.111,0.36
1580988.889,0.395
1580991.667,0.445
1580994.444,0.46
1580997.222,0.46
1581000,0.475
1581002.778,0.51
1581005.556,0.56
1581008.333,0.59
1581011.111,0.575
1581013.889,0.54
1581016.667,0.505
1581019.444,0.48
1581022.222,0.445
1581025,0.425
1581027.778,0.395
1581030.556,0.365
1581033.333,0.325
1581036.111,0.26
1581038.889,0.2
1581041.667,0.165
1581044.444,0.135
1581047.222,0.1
1581050,0.09
1581052.778,0.045
1581055.556,0.015
1581058.333,0.01
1581061.111,-0.015
1581063.889,-0.03
1581066.667,-0.04
1581069.444,-0.08
1581072.222,-0.085
1581075,-0.1
1581077.778,-0.105
1581080.556,-0.14
1581083.333,-0.16
1581086.111,-0.19
1581088.889,-0.175
1581091.667,-0.165
1581094.444,-0.15
1581097.222,-0.15
1581100,-0.14
1581102.778,-0.135
1581105.556,-0.11
1581108.333,-0.07
1581111.111,-0.08
1581113.889,-0.1
1581116.667,-0.115
1581119.444,-0.12
1581122.222,-0.115
1581125,-0.095
1581127.778,-0.11
1581130.556,-0.125
1581133.333,-0.13
1581136.111,-0.145
1581138.889,-0.145
1581141.667,-0.135
1581144.444,-0.15
1581147.222,-0.17
1581150,-0.185
1581152.778,-0.185
1581155.556,-0.195
1581158.333,-0.19
1581161.111,-0.2
1581163.889,-0.235
1581166.667,-0.24
1581169.444,-0.22
1581172.222,-0.195
1581175,-0.165
1581177.778,-0.155
1581180.556,-0.155
1581183.333,-0.155
1581186.111,-0.135
1581188.889,-0.095
1581191.667,-0.065
1581194.444,-0.04
1581197.222,-0.03
1581200,-0.04
1581202.778,-0.03
1581205.556,0.005
1581208.333,0.045
1581211.111,0.065
1581213.889,0.095
1581216.667,0.12
1581219.444,0.14
1581222.222,0.165
1581225,0.215
1581227.778,0.245
1581230.556,0.26
1581233.333,0.27
1581236.111,0.3
1581238.889,0.32
1581241.667,0.37
1581244.444,0.37
1581247.222,0.37
1581250,0.39
1581252.778,0.41
1581255.556,0.45
1581258.333,0.495
1581261.111,0.53
1581263.889,0.535
1581266.667,0.525
1581269.444,0.53
1581272.222,0.54
1581275,0.555
1581277.778,0.535
1581280.556,0.475
1581283.333,0.395
1581286.111,0.32
1581288.889,0.275
1581291.667,0.27
1581294.444,0.24
1581297.222,0.18
1581300,0.11
1581302.778,0.055
1581305.556,0.035
1581308.333,0.04
1581311.111,0.04
1581313.889,0.025
1581316.667,0.01
1581319.444,0
1581322.222,-0.035
1581325,-0.045
1581327.778,-0.075
1581330.556,-0.09
1581333.333,-0.12
1581336.111,-0.16
1581338.889,-0.16
1581341.667,-0.16
1581344.444,-0.145
1581347.222,-0.165
1581350,-0.155
1581352.778,-0.15
1581355.556,-0.13
1581358.333,-0.125
1581361.111,-0.12
1581363.889,-0.11
1581366.667,-0.105
1581369.444,-0.115
1581372.222,-0.115
1581375,-0.1
1581377.778,-0.095
1581380.556,-0.08
1581383.333,-0.07
1581386.111,-0.055
1581388.889,-0.08
1581391.667,-0.08
1581394.444,-0.085
1581397.222,-0.085
1581400,-0.095
1581402.778,-0.075
1581405.556,-0.065
1581408.333,-0.05
1581411.111,-0.055
1581413.889,-0.085
1581416.667,-0.12
1581419.444,-0.11
1581422.222,-0.08
1581425,-0.025
1581427.778,-0.015
1581430.556,-0.01
1581433.333,-0.005
1581436.111,0.02
1581438.889,0.065
1581441.667,0.095
1581444.444,0.11
1581447.222,0.12
1581450,0.15
1581452.778,0.175
1581455.556,0.195
1581458.333,0.225
1581461.111,0.27
1581463.889,0.295
1581466.667,0.325
1581469.444,0.34
1581472.222,0.375
1581475,0.415
1581477.778,0.43
1581480.556,0.41
1581483.333,0.405
1581486.111,0.445
1581488.889,0.49
1581491.667,0.54
1581494.444,0.56
1581497.222,0.56
1581500,0.55
1581502.778,0.55
1581505.556,0.58
1581508.333,0.635
1581511.111,0.655
1581513.889,0.66
1581516.667,0.675
1581519.444,0.705
1581522.222,0.75
1581525,0.76
1581527.778,0.755
1581530.556,0.69
1581533.333,0.62
1581536.111,0.545
1581538.889,0.495
1581541.667,0.46
1581544.444,0.41
1581547.222,0.335
1581550,0.28
1581552.778,0.205
1581555.556,0.15
1581558.333,0.125
1581561.111,0.105
1581563.889,0.075
1581566.667,0.04
1581569.444,0.02
1581572.222,0.01
1581575,-0.02
1581577.778,-0.045
1581580.556,-0.055
1581583.333,-0.055
1581586.111,-0.08
1581588.889,-0.115
1581591.667,-0.14
1581594.444,-0.18
1581597.222,-0.215
1581600,-0.235
1581602.778,-0.23
1581605.556,-0.205
1581608.333,-0.195
1581611.111,-0.185
1581613.889,-0.195
1581616.667,-0.21
1581619.444,-0.2
1581622.222,-0.175
1581625,-0.12
1581627.778,-0.11
1581630.556,-0.125
1581633.333,-0.12
1581636.111,-0.115
1581638.889,-0.065
1581641.667,-0.05
1581644.444,-0.06
1581647.222,-0.085
1581650,-0.09
1581652.778,-0.09
1581655.556,-0.07
1581658.333,-0.065
1581661.111,-0.06
1581663.889,-0.065
1581666.667,-0.06
1581669.444,-0.06
1581672.222,-0.04
1581675,-0.035
1581677.778,-0.06
1581680.556,-0.08
1581683.333,-0.065
1581686.111,-0.04
1581688.889,-0.015
1581691.667,0.005
1581694.444,-0.015
1581697.222,-0.01
1581700,0.02
1581702.778,0.055
1581705.556,0.1
1581708.333,0.115
1581711.111,0.145
1581713.889,0.15
1581716.667,0.165
1581719.444,0.17
1581722.222,0.21
1581725,0.265
1581727.778,0.305
1581730.556,0.325
1581733.333,0.35
1581736.111,0.375
1581738.889,0.385
1581741.667,0.42
1581744.444,0.45
1581747.222,0.47
1581750,0.5
1581752.778,0.52
1581755.556,0.555
1581758.333,0.59
1581761.111,0.595
1581763.889,0.605
1581766.667,0.625
1581769.444,0.625
1581772.222,0.67
1581775,0.715
1581777.778,0.755
1581780.556,0.8
1581783.333,0.815
1581786.111,0.81
1581788.889,0.785
1581791.667,0.755
1581794.444,0.71
1581797.222,0.635
1581800,0.56
1581802.778,0.5
1581805.556,0.44
1581808.333,0.415
1581811.111,0.345
1581813.889,0.26
1581816.667,0.2
1581819.444,0.17
1581822.222,0.145
1581825,0.105
1581827.778,0.07
1581830.556,0.035
1581833.333,0.03
1581836.111,0.03
1581838.889,0.045
1581841.667,0.04
1581844.444,0.005
1581847.222,-0.025
1581850,-0.07
1581852.778,-0.09
1581855.556,-0.095
1581858.333,-0.105
1581861.111,-0.14
1581863.889,-0.15
1581866.667,-0.14
1581869.444,-0.105
1581872.222,-0.08
1581875,-0.08
1581877.778,-0.11
1581880.556,-0.11
1581883.333,-0.1
1581886.111,-0.07
1581888.889,-0.055
1581891.667,-0.03
1581894.444,-0.035
1581897.222,-0.04
1581900,-0.045
1581902.778,-0.055
1581905.556,-0.06
1581908.333,-0.045
1581911.111,-0.045
1581913.889,-0.045
1581916.667,-0.055
1581919.444,-0.06
1581922.222,-0.065
1581925,-0.07
1581927.778,-0.08
1581930.556,-0.095
1581933.333,-0.1
1581936.111,-0.09
1581938.889,-0.09
1581941.667,-0.085
1581944.444,-0.09
1581947.222,-0.1
1581950,-0.08
1581952.778,-0.075
1581955.556,-0.055
1581958.333,-0.04
1581961.111,-0.035
1581963.889,-0.01
1581966.667,0.01
1581969.444,0.04
1581972.222,0.075
1581975,0.115
1581977.778,0.13
1581980.556,0.135
1581983.333,0.14
1581986.111,0.185
1581988.889,0.25
1581991.667,0.305
1581994.444,0.32
1581997.222,0.305
1582000,0.29
1582002.778,0.315
1582005.556,0.38
1582008.333,0.43
1582011.111,0.465
1582013.889,0.465
1582016.667,0.47
1582019.444,0.5
1582022.222,0.53
1582025,0.57
1582027.778,0.59
1582030.556,0.57
1582033.333,0.59
1582036.111,0.62
1582038.889,0.68
1582041.667,0.76
1582044.444,0.79
1582047.222,0.815
1582050,0.815
1582052.778,0.8
1582055.556,0.77
1582058.333,0.75
1582061.111,0.685
1582063.889,0.625
1582066.667,0.535
1582069.444,0.43
1582072.222,0.375
1582075,0.33
1582077.778,0.295
1582080.556,0.22
1582083.333,0.17
1582086.111,0.11
1582088.889,0.065
1582091.667,0.06
1582094.444,0.055
1582097.222,0.06
1582100,0.045
1582102.778,0.02
1582105.556,-0.01
1582108.333,-0.03
1582111.111,-0.04
1582113.889,-0.085
1582116.667,-0.12
1582119.444,-0.15
1582122.222,-0.145
1582125,-0.13
1582127.778,-0.15
1582130.556,-0.165
1582133.333,-0.16
1582136.111,-0.13
1582138.889,-0.08
1582141.667,-0.045
1582144.444,-0.05
1582147.222,-0.06
1582150,-0.06
1582152.778,-0.05
1582155.556,-0.025
1582158.333,-0.02
1582161.111,-0.03
1582163.889,-0.06
1582166.667,-0.09
1582169.444,-0.1
1582172.222,-0.075
1582175,-0.065
1582177.778,-0.05
1582180.556,-0.06
1582183.333,-0.075
1582186.111,-0.105
1582188.889,-0.11
1582191.667,-0.1
1582194.444,-0.085
1582197.222,-0.065
1582200,-0.065
1582202.778,-0.075
1582205.556,-0.075
1582208.333,-0.065
1582211.111,-0.03
1582213.889,0.005
1582216.667,0
1582219.444,0.005
1582222.222,0.035
1582225,0.07
1582227.778,0.075
1582230.556,0.11
1582233.333,0.15
1582236.111,0.17
1582238.889,0.195
1582241.667,0.23
1582244.444,0.245
1582247.222,0.265
1582250,0.31
1582252.778,0.34
1582255.556,0.33
1582258.333,0.385
1582261.111,0.425
1582263.889,0.46
1582266.667,0.455
1582269.444,0.455
1582272.222,0.48
1582275,0.52
1582277.778,0.555
1582280.556,0.58
1582283.333,0.595
1582286.111,0.59
1582288.889,0.635
1582291.667,0.69
1582294.444,0.735
1582297.222,0.73
1582300,0.675
1582302.778,0.63
1582305.556,0.595
1582308.333,0.56
1582311.111,0.48
1582313.889,0.36
1582316.667,0.27
1582319.444,0.235
1582322.222,0.2
1582325,0.15
1582327.778,0.05
1582330.556,0.005
1582333.333,-0.035
1582336.111,-0.035
1582338.889,-0.02
1582341.667,-0.01
1582344.444,-0.025
1582347.222,-0.075
1582350,-0.11
1582352.778,-0.14
1582355.556,-0.155
1582358.333,-0.145
1582361.111,-0.15
1582363.889,-0.18
1582366.667,-0.195
1582369.444,-0.21
1582372.222,-0.23
1582375,-0.22
1582377.778,-0.2
1582380.556,-0.16
1582383.333,-0.16
1582386.111,-0.155
1582388.889,-0.12
1582391.667,-0.085
1582394.444,-0.075
1582397.222,-0.065
1582400,-0.04
1582402.778,-0.015
1582405.556,0.005
1582408.333,0.005
1582411.111,0.005
1582413.889,0
1582416.667,-0.005
1582419.444,-0.005
1582422.222,-0.01
1582425,0
1582427.778,0.005
1582430.556,0.005
1582433.333,0
1582436.111,0
1582438.889,0.02
1582441.667,0.02
1582444.444,0.005
1582447.222,-0.005
1582450,-0.005
1582452.778,-0.01
1582455.556,0.005
1582458.333,0.01
1582461.111,0.02
1582463.889,0.005
1582466.667,0.025
1582469.444,0.055
1582472.222,0.1
1582475,0.105
1582477.778,0.095
1582480.556,0.09
1582483.333,0.1
1582486.111,0.12
1582488.889,0.165
1582491.667,0.21
1582494.444,0.215
1582497.222,0.215
1582500,0.225
1582502.778,0.265
1582505.556,0.315
1582508.333,0.34
1582511.111,0.335
1582513.889,0.33
1582516.667,0.33
1582519.444,0.355
1582522.222,0.405
1582525,0.45
1582527.778,0.46
1582530.556,0.44
1582533.333,0.425
1582536.111,0.44
1582538.889,0.505
1582541.667,0.545
1582544.444,0.585
1582547.222,0.6
1582550,0.625
1582552.778,0.655
1582555.556,0.69
1582558.333,0.715
1582561.111,0.665
1582563.889,0.63
1582566.667,0.57
1582569.444,0.53
1582572.222,0.495
1582575,0.445
1582577.778,0.38
1582580.556,0.285
1582583.333,0.185
1582586.111,0.1
1582588.889,0.05
1582591.667,0.005
1582594.444,-0.03
1582597.222,-0.065
1582600,-0.085
1582602.778,-0.105
1582605.556,-0.115
1582608.333,-0.125
1582611.111,-0.135
1582613.889,-0.16
1582616.667,-0.185
1582619.444,-0.215
1582622.222,-0.265
1582625,-0.29
1582627.778,-0.305
1582630.556,-0.32
1582633.333,-0.33
1582636.111,-0.325
1582638.889,-0.315
1582641.667,-0.335
1582644.444,-0.34
1582647.222,-0.34
1582650,-0.345
1582652.778,-0.335
1582655.556,-0.285
1582658.333,-0.245
1582661.111,-0.24
1582663.889,-0.24
1582666.667,-0.22
1582669.444,-0.195
1582672.222,-0.145
1582675,-0.115
1582677.778,-0.1
1582680.556,-0.095
1582683.333,-0.11
1582686.111,-0.12
1582688.889,-0.13
1582691.667,-0.13
1582694.444,-0.12
1582697.222,-0.115
1582700,-0.105
1582702.778,-0.08
1582705.556,-0.075
1582708.333,-0.085
1582711.111,-0.09
1582713.889,-0.09
1582716.667,-0.075
1582719.444,-0.06
1582722.222,-0.06
1582725,-0.06
1582727.778,-0.03
1582730.556,0.015
1582733.333,0.045
1582736.111,0.05
1582738.889,0.065
1582741.667,0.08
1582744.444,0.09
1582747.222,0.105
1582750,0.13
1582752.778,0.17
1582755.556,0.195
1582758.333,0.225
1582761.111,0.22
1582763.889,0.24
1582766.667,0.26
1582769.444,0.295
1582772.222,0.34
1582775,0.365
1582777.778,0.375
1582780.556,0.4
1582783.333,0.445
1582786.111,0.46
1582788.889,0.495
1582791.667,0.54
1582794.444,0.555
1582797.222,0.575
1582800,0.575
1582802.778,0.59
1582805.556,0.625
1582808.333,0.62
1582811.111,0.635
1582813.889,0.66
1582816.667,0.68
1582819.444,0.715
1582822.222,0.745
1582825,0.77
1582827.778,0.765
1582830.556,0.75
1582833.333,0.74
1582836.111,0.72
1582838.889,0.695
1582841.667,0.63
1582844.444,0.54
1582847.222,0.42
1582850,0.33
1582852.778,0.27
1582855.556,0.195
1582858.333,0.145
1582861.111,0.075
1582863.889,0.005
1582866.667,-0.035
1582869.444,-0.04
1582872.222,-0.025
1582875,-0.04
1582877.778,-0.065
1582880.556,-0.105
1582883.333,-0.15
1582886.111,-0.185
1582888.889,-0.195
1582891.667,-0.18
1582894.444,-0.195
1582897.222,-0.22
1582900,-0.255
1582902.778,-0.265
1582905.556,-0.27
1582908.333,-0.27
1582911.111,-0.29
1582913.889,-0.27
1582916.667,-0.265
1582919.444,-0.26
1582922.222,-0.265
1582925,-0.275
1582927.778,-0.29
1582930.556,-0.295
1582933.333,-0.27
1582936.111,-0.22
1582938.889,-0.205
1582941.667,-0.17
1582944.444,-0.17
1582947.222,-0.195
1582950,-0.205
1582952.778,-0.19
1582955.556,-0.145
1582958.333,-0.11
1582961.111,-0.13
1582963.889,-0.17
1582966.667,-0.18
1582969.444,-0.195
1582972.222,-0.195
1582975,-0.195
1582977.778,-0.19
1582980.556,-0.185
1582983.333,-0.18
1582986.111,-0.165
1582988.889,-0.145
1582991.667,-0.13
1582994.444,-0.125
1582997.222,-0.12
1583000,-0.115
1583002.778,-0.095
1583005.556,-0.055
1583008.333,-0.04
1583011.111,-0.03
1583013.889,-0.02
1583016.667,-0.01
1583019.444,0.01
1583022.222,0.05
1583025,0.055
1583027.778,0.055
1583030.556,0.045
1583033.333,0.055
1583036.111,0.095
1583038.889,0.14
1583041.667,0.155
1583044.444,0.135
1583047.222,0.13
1583050,0.12
1583052.778,0.125
1583055.556,0.14
1583058.333,0.17
1583061.111,0.205
1583063.889,0.205
1583066.667,0.215
1583069.444,0.205
1583072.222,0.22
1583075,0.25
1583077.778,0.26
1583080.556,0.285
1583083.333,0.31
1583086.111,0.37
1583088.889,0.375
1583091.667,0.365
1583094.444,0.36
1583097.222,0.365
1583100,0.345
1583102.778,0.325
1583105.556,0.335
1583108.333,0.34
1583111.111,0.33
1583113.889,0.275
1583116.667,0.185
1583119.444,0.075
1583122.222,0.005
1583125,-0.035
1583127.778,-0.075
1583130.556,-0.1
1583133.333,-0.125
1583136.111,-0.13
1583138.889,-0.145
1583141.667,-0.145
1583144.444,-0.15
1583147.222,-0.17
1583150,-0.21
1583152.778,-0.18
1583155.556,-0.155
1583158.333,-0.12
1583161.111,-0.135
1583163.889,-0.165
1583166.667,-0.215
1583169.444,-0.205
1583172.222,-0.16
1583175,-0.115
1583177.778,-0.115
1583180.556,-0.14
1583183.333,-0.155
1583186.111,-0.17
1583188.889,-0.105
1583191.667,-0.105
1583194.444,-0.105
1583197.222,-0.125
1583200,-0.095
1583202.778,-0.065
1583205.556,-0.05
1583208.333,-0.055
1583211.111,-0.04
1583213.889,-0.06
1583216.667,-0.085
1583219.444,-0.085
1583222.222,-0.095
1583225,-0.11
1583227.778,-0.13
1583230.556,-0.165
1583233.333,-0.175
1583236.111,-0.17
1583238.889,-0.17
1583241.667,-0.18
1583244.444,-0.205
1583247.222,-0.215
1583250,-0.205
1583252.778,-0.205
1583255.556,-0.225
1583258.333,-0.24
1583261.111,-0.25
1583263.889,-0.255
1583266.667,-0.27
1583269.444,-0.29
1583272.222,-0.305
1583275,-0.295
1583277.778,-0.275
1583280.556,-0.265
1583283.333,-0.25
1583286.111,-0.265
1583288.889,-0.245
1583291.667,-0.2
1583294.444,-0.185
1583297.222,-0.21
1583300,-0.23
1583302.778,-0.235
1583305.556,-0.225
1583308.333,-0.2
1583311.111,-0.17
1583313.889,-0.17
1583316.667,-0.175
1583319.444,-0.195
1583322.222,-0.185
1583325,-0.15
1583327.778,-0.15
1583330.556,-0.135
1583333.333,-0.115
1583336.111,-0.1
1583338.889,-0.065
1583341.667,-0.065
1583344.444,-0.065
1583347.222,-0.05
1583350,-0.03
1583352.778,0.005
1583355.556,0.015
1583358.333,-0.015
1583361.111,-0.04
1583363.889,-0.05
1583366.667,-0.025
1583369.444,0.02
1583372.222,0.065
1583375,0.06
1583377.778,0.035
1583380.556,-0.025
1583383.333,-0.085
1583386.111,-0.09
1583388.889,-0.075
1583391.667,-0.105
1583394.444,-0.2
1583397.222,-0.32
1583400,-0.385
1583402.778,-0.405
1583405.556,-0.41
1583408.333,-0.435
1583411.111,-0.43
1583413.889,-0.455
1583416.667,-0.45
1583419.444,-0.445
1583422.222,-0.46
1583425,-0.445
1583427.778,-0.45
1583430.556,-0.43
1583433.333,-0.43
1583436.111,-0.455
1583438.889,-0.455
1583441.667,-0.45
1583444.444,-0.44
1583447.222,-0.455
1583450,-0.465
1583452.778,-0.455
1583455.556,-0.42
1583458.333,-0.37
1583461.111,-0.335
1583463.889,-0.32
1583466.667,-0.295
1583469.444,-0.27
1583472.222,-0.235
1583475,-0.21
1583477.778,-0.215
1583480.556,-0.235
1583483.333,-0.23
1583486.111,-0.21
1583488.889,-0.16
1583491.667,-0.155
1583494.444,-0.16
1583497.222,-0.165
1583500,-0.16
1583502.778,-0.175
1583505.556,-0.185
1583508.333,-0.18
1583511.111,-0.17
1583513.889,-0.185
1583516.667,-0.2
1583519.444,-0.235
1583522.222,-0.26
1583525,-0.26
1583527.778,-0.26
1583530.556,-0.265
1583533.333,-0.275
1583536.111,-0.285
1583538.889,-0.26
1583541.667,-0.235
1583544.444,-0.23
1583547.222,-0.27
1583550,-0.305
1583552.778,-0.335
1583555.556,-0.31
1583558.333,-0.23
1583561.111,-0.17
1583563.889,-0.16
1583566.667,-0.2
1583569.444,-0.225
1583572.222,-0.25
1583575,-0.265
1583577.778,-0.275
1583580.556,-0.24
1583583.333,-0.21
1583586.111,-0.225
1583588.889,-0.215
1583591.667,-0.13
1583594.444,-0.05
1583597.222,-0.035
1583600,-0.045
1583602.778,-0.07
1583605.556,-0.08
1583608.333,-0.065
1583611.111,-0.065
1583613.889,-0.07
1583616.667,-0.065
1583619.444,-0.05
1583622.222,-0.01
1583625,0.04
1583627.778,0.06
1583630.556,0.02
1583633.333,-0.045
1583636.111,-0.05
1583638.889,0.045
1583641.667,0.155
1583644.444,0.21
1583647.222,0.17
1583650,0.125
1583652.778,0.11
1583655.556,0.135
1583658.333,0.135
1583661.111,0.11
1583663.889,0.04
1583666.667,-0.005
1583669.444,-0.005
1583672.222,-0.01
1583675,-0.06
1583677.778,-0.155
1583680.556,-0.24
1583683.333,-0.275
1583686.111,-0.32
1583688.889,-0.345
1583691.667,-0.35
1583694.444,-0.325
1583697.222,-0.33
1583700,-0.37
1583702.778,-0.43
1583705.556,-0.465
1583708.333,-0.48
1583711.111,-0.48
1583713.889,-0.465
1583716.667,-0.455
1583719.444,-0.455
1583722.222,-0.44
1583725,-0.4
1583727.778,-0.405
1583730.556,-0.43
1583733.333,-0.415
1583736.111,-0.39
1583738.889,-0.37
1583741.667,-0.35
1583744.444,-0.315
1583747.222,-0.3
1583750,-0.285
1583752.778,-0.27
1583755.556,-0.26
1583758.333,-0.265
1583761.111,-0.25
1583763.889,-0.205
1583766.667,-0.13
1583769.444,-0.06
1583772.222,-0.035
1583775,-0.07
1583777.778,-0.08
1583780.556,-0.055
1583783.333,-0.005
1583786.111,0.005
1583788.889,-0.01
1583791.667,-0.1
1583794.444,-0.21
1583797.222,-0.245
1583800,-0.21
1583802.778,-0.165
1583805.556,-0.17
1583808.333,-0.18
1583811.111,-0.18
1583813.889,-0.19
1583816.667,-0.235
1583819.444,-0.27
1583822.222,-0.29
1583825,-0.27
1583827.778,-0.285
1583830.556,-0.33
1583833.333,-0.37
1583836.111,-0.39
1583838.889,-0.355
1583841.667,-0.295
1583844.444,-0.265
1583847.222,-0.29
1583850,-0.35
1583852.778,-0.385
1583855.556,-0.345
1583858.333,-0.3
1583861.111,-0.29
1583863.889,-0.295
1583866.667,-0.29
1583869.444,-0.325
1583872.222,-0.365
1583875,-0.355
1583877.778,-0.32
1583880.556,-0.29
1583883.333,-0.325
1583886.111,-0.35
1583888.889,-0.33
1583891.667,-0.295
1583894.444,-0.245
1583897.222,-0.21
1583900,-0.21
1583902.778,-0.24
1583905.556,-0.27
1583908.333,-0.255
1583911.111,-0.255
1583913.889,-0.23
1583916.667,-0.195
1583919.444,-0.155
1583922.222,-0.155
1583925,-0.17
1583927.778,-0.195
1583930.556,-0.165
1583933.333,-0.1
1583936.111,-0.065
1583938.889,-0.07
1583941.667,-0.145
1583944.444,-0.2
1583947.222,-0.235
1583950,-0.255
1583952.778,-0.25
1583955.556,-0.245
1583958.333,-0.265
1583961.111,-0.31
1583963.889,-0.37
1583966.667,-0.385
1583969.444,-0.375
1583972.222,-0.355
1583975,-0.36
1583977.778,-0.39
1583980.556,-0.44
1583983.333,-0.475
1583986.111,-0.425
1583988.889,-0.405
1583991.667,-0.395
1583994.444,-0.405
1583997.222,-0.41
1584000,-0.415
1584002.778,-0.455
1584005.556,-0.49
1584008.333,-0.49
1584011.111,-0.45
1584013.889,-0.435
1584016.667,-0.47
1584019.444,-0.475
1584022.222,-0.48
1584025,-0.445
1584027.778,-0.38
1584030.556,-0.33
1584033.333,-0.29
1584036.111,-0.29
1584038.889,-0.285
1584041.667,-0.265
1584044.444,-0.225
1584047.222,-0.19
1584050,-0.165
1584052.778,-0.18
1584055.556,-0.155
1584058.333,-0.15
1584061.111,-0.12
1584063.889,-0.075
1584066.667,-0.06
1584069.444,-0.07
1584072.222,-0.09
1584075,-0.075
1584077.778,-0.04
1584080.556,-0.005
1584083.333,-0.005
1584086.111,-0.03
1584088.889,-0.085
1584091.667,-0.155
1584094.444,-0.185
1584097.222,-0.235
1584100,-0.23
1584102.778,-0.175
1584105.556,-0.115
1584108.333,-0.08
1584111.111,-0.12
1584113.889,-0.18
1584116.667,-0.245
1584119.444,-0.26
1584122.222,-0.255
1584125,-0.28
1584127.778,-0.35
1584130.556,-0.385
1584133.333,-0.35
1584136.111,-0.265
1584138.889,-0.2
1584141.667,-0.22
1584144.444,-0.25
1584147.222,-0.275
1584150,-0.285
1584152.778,-0.275
1584155.556,-0.275
1584158.333,-0.295
1584161.111,-0.305
1584163.889,-0.27
1584166.667,-0.21
1584169.444,-0.195
1584172.222,-0.2
1584175,-0.215
1584177.778,-0.2
1584180.556,-0.19
1584183.333,-0.23
1584186.111,-0.275
1584188.889,-0.245
1584191.667,-0.195
1584194.444,-0.16
1584197.222,-0.165
1584200,-0.21
1584202.778,-0.275
1584205.556,-0.265
1584208.333,-0.225
1584211.111,-0.21
1584213.889,-0.23
1584216.667,-0.225
1584219.444,-0.185
1584222.222,-0.17
1584225,-0.195
1584227.778,-0.245
1584230.556,-0.27
1584233.333,-0.26
1584236.111,-0.285
1584238.889,-0.355
1584241.667,-0.395
1584244.444,-0.39
1584247.222,-0.395
1584250,-0.4
1584252.778,-0.42
1584255.556,-0.455
1584258.333,-0.505
1584261.111,-0.595
1584263.889,-0.665
1584266.667,-0.655
1584269.444,-0.595
1584272.222,-0.56
1584275,-0.555
1584277.778,-0.575
1584280.556,-0.605
1584283.333,-0.595
1584286.111,-0.52
1584288.889,-0.455
1584291.667,-0.47
1584294.444,-0.49
1584297.222,-0.59
1584300,-0.635
1584302.778,-0.66
1584305.556,-0.605
1584308.333,-0.56
1584311.111,-0.535
1584313.889,-0.525
1584316.667,-0.5
1584319.444,-0.46
1584322.222,-0.455
1584325,-0.48
1584327.778,-0.48
1584330.556,-0.43
1584333.333,-0.35
1584336.111,-0.295
1584338.889,-0.295
1584341.667,-0.29
1584344.444,-0.26
1584347.222,-0.175
1584350,-0.085
1584352.778,-0.07
1584355.556,-0.1
1584358.333,-0.13
1584361.111,-0.12
1584363.889,-0.13
1584366.667,-0.18
1584369.444,-0.22
1584372.222,-0.215
1584375,-0.14
1584377.778,-0.055
1584380.556,-0.04
1584383.333,-0.105
1584386.111,-0.18
1584388.889,-0.175
1584391.667,-0.145
1584394.444,-0.135
1584397.222,-0.175
1584400,-0.235
1584402.778,-0.26
1584405.556,-0.26
1584408.333,-0.22
1584411.111,-0.16
1584413.889,-0.14
1584416.667,-0.165
1584419.444,-0.19
1584422.222,-0.24
1584425,-0.22
1584427.778,-0.145
1584430.556,-0.075
1584433.333,-0.07
1584436.111,-0.13
1584438.889,-0.175
1584441.667,-0.21
1584444.444,-0.195
1584447.222,-0.185
1584450,-0.155
1584452.778,-0.145
1584455.556,-0.14
1584458.333,-0.15
1584461.111,-0.145
1584463.889,-0.145
1584466.667,-0.135
1584469.444,-0.13
1584472.222,-0.15
1584475,-0.165
1584477.778,-0.125
1584480.556,-0.13
1584483.333,-0.135
1584486.111,-0.13
1584488.889,-0.12
1584491.667,-0.12
1584494.444,-0.1
1584497.222,-0.08
1584500,-0.065
1584502.778,-0.095
1584505.556,-0.155
1584508.333,-0.18
1584511.111,-0.175
1584513.889,-0.17
1584516.667,-0.19
1584519.444,-0.23
1584522.222,-0.25
1584525,-0.32
1584527.778,-0.42
1584530.556,-0.535
1584533.333,-0.59
1584536.111,-0.56
1584538.889,-0.485
1584541.667,-0.47
1584544.444,-0.505
1584547.222,-0.545
1584550,-0.575
1584552.778,-0.59
1584555.556,-0.61
1584558.333,-0.57
1584561.111,-0.55
1584563.889,-0.54
1584566.667,-0.595
1584569.444,-0.645
1584572.222,-0.635
1584575,-0.625
1584577.778,-0.61
1584580.556,-0.615
1584583.333,-0.605
1584586.111,-0.59
1584588.889,-0.57
1584591.667,-0.52
1584594.444,-0.48
1584597.222,-0.45
1584600,-0.425
1584602.778,-0.375
1584605.556,-0.325
1584608.333,-0.32
1584611.111,-0.305
1584613.889,-0.32
1584616.667,-0.33
1584619.444,-0.335
1584622.222,-0.335
1584625,-0.31
1584627.778,-0.29
1584630.556,-0.32
1584633.333,-0.325
1584636.111,-0.29
1584638.889,-0.27
1584641.667,-0.275
1584644.444,-0.29
1584647.222,-0.28
1584650,-0.23
1584652.778,-0.21
1584655.556,-0.225
1584658.333,-0.245
1584661.111,-0.265
1584663.889,-0.28
1584666.667,-0.275
1584669.444,-0.28
1584672.222,-0.275
1584675,-0.245
1584677.778,-0.225
1584680.556,-0.205
1584683.333,-0.22
1584686.111,-0.245
1584688.889,-0.28
1584691.667,-0.215
1584694.444,-0.17
1584697.222,-0.165
1584700,-0.16
1584702.778,-0.145
1584705.556,-0.11
1584708.333,-0.085
1584711.111,-0.08
1584713.889,-0.075
1584716.667,-0.075
1584719.444,-0.065
1584722.222,-0.045
1584725,-0.015
1584727.778,0.01
1584730.556,0.03
1584733.333,0.055
1584736.111,0.06
1584738.889,0.06
1584741.667,0.055
1584744.444,0.035
1584747.222,0.015
1584750,0.02
1584752.778,0.045
1584755.556,0.06
1584758.333,0.085
1584761.111,0.085
1584763.889,0.125
1584766.667,0.17
1584769.444,0.16
1584772.222,0.125
1584775,0.055
1584777.778,0.005
1584780.556,0.025
1584783.333,0.04
1584786.111,0.045
1584788.889,0.01
1584791.667,-0.025
1584794.444,-0.095
1584797.222,-0.165
1584800,-0.21
1584802.778,-0.265
1584805.556,-0.31
1584808.333,-0.35
1584811.111,-0.38
1584813.889,-0.405
1584816.667,-0.4
1584819.444,-0.4
1584822.222,-0.42
1584825,-0.43
1584827.778,-0.46
1584830.556,-0.48
1584833.333,-0.49
1584836.111,-0.5
1584838.889,-0.485
1584841.667,-0.51
1584844.444,-0.51
1584847.222,-0.5
1584850,-0.48
1584852.778,-0.46
1584855.556,-0.45
1584858.333,-0.43
1584861.111,-0.435
1584863.889,-0.425
1584866.667,-0.41
1584869.444,-0.38
1584872.222,-0.345
1584875,-0.295
1584877.778,-0.27
1584880.556,-0.275
1584883.333,-0.255
1584886.111,-0.235
1584888.889,-0.2
1584891.667,-0.19
1584894.444,-0.18
1584897.222,-0.17
1584900,-0.165
1584902.778,-0.135
1584905.556,-0.14
1584908.333,-0.125
1584911.111,-0.13
1584913.889,-0.14
1584916.667,-0.135
1584919.444,-0.13
1584922.222,-0.125
1584925,-0.13
1584927.778,-0.15
1584930.556,-0.17
1584933.333,-0.2
1584936.111,-0.24
1584938.889,-0.24
1584941.667,-0.24
1584944.444,-0.24
1584947.222,-0.265
1584950,-0.29
1584952.778,-0.275
1584955.556,-0.275
1584958.333,-0.27
1584961.111,-0.27
1584963.889,-0.29
1584966.667,-0.305
1584969.444,-0.305
1584972.222,-0.295
1584975,-0.28
1584977.778,-0.27
1584980.556,-0.26
1584983.333,-0.255
1584986.111,-0.245
1584988.889,-0.225
1584991.667,-0.225
1584994.444,-0.215
1584997.222,-0.19
1585000,-0.175
1585002.778,-0.17
1585005.556,-0.145
1585008.333,-0.105
1585011.111,-0.09
1585013.889,-0.08
1585016.667,-0.075
1585019.444,-0.06
1585022.222,-0.04
1585025,-0.03
1585027.778,-0.005
1585030.556,0.005
1585033.333,0.02
1585036.111,0.05
1585038.889,0.085
1585041.667,0.105
1585044.444,0.105
1585047.222,0.12
1585050,0.125
1585052.778,0.155
1585055.556,0.18
1585058.333,0.155
1585061.111,0.125
1585063.889,0.09
1585066.667,0.045
1585069.444,-0.01
1585072.222,-0.045
1585075,-0.08
1585077.778,-0.125
1585080.556,-0.155
1585083.333,-0.18
1585086.111,-0.185
1585088.889,-0.18
1585091.667,-0.195
1585094.444,-0.215
1585097.222,-0.23
1585100,-0.23
1585102.778,-0.245
1585105.556,-0.225
1585108.333,-0.215
1585111.111,-0.245
1585113.889,-0.28
1585116.667,-0.295
1585119.444,-0.32
1585122.222,-0.3
1585125,-0.3
1585127.778,-0.3
1585130.556,-0.305
1585133.333,-0.305
1585136.111,-0.26
1585138.889,-0.25
1585141.667,-0.22
1585144.444,-0.2
1585147.222,-0.18
1585150,-0.145
1585152.778,-0.105
1585155.556,-0.07
1585158.333,-0.045
1585161.111,-0.04
1585163.889,-0.04
1585166.667,-0.02
1585169.444,-0.015
1585172.222,-0.005
1585175,0.005
1585177.778,-0.005
1585180.556,0
1585183.333,-0.02
1585186.111,-0.02
1585188.889,-0.005
1585191.667,-0.005
1585194.444,-0.015
1585197.222,-0.04
1585200,-0.04
1585202.778,-0.07
1585205.556,-0.07
1585208.333,-0.09
1585211.111,-0.1
1585213.889,-0.12
1585216.667,-0.14
1585219.444,-0.13
1585222.222,-0.135
1585225,-0.125
1585227.778,-0.125
1585230.556,-0.12
1585233.333,-0.125
1585236.111,-0.115
1585238.889,-0.115
1585241.667,-0.1
1585244.444,-0.11
1585247.222,-0.125
1585250,-0.135
1585252.778,-0.145
1585255.556,-0.14
1585258.333,-0.12
1585261.111,-0.1
1585263.889,-0.075
1585266.667,-0.05
1585269.444,-0.01
1585272.222,0.015
1585275,0.03
1585277.778,0.055
1585280.556,0.06
1585283.333,0.05
1585286.111,0.07
1585288.889,0.09
1585291.667,0.105
1585294.444,0.115
1585297.222,0.125
1585300,0.135
1585302.778,0.175
1585305.556,0.185
1585308.333,0.225
1585311.111,0.24
1585313.889,0.235
1585316.667,0.215
1585319.444,0.2
1585322.222,0.165
1585325,0.11
1585327.778,0.055
1585330.556,-0.005
1585333.333,-0.065
1585336.111,-0.11
1585338.889,-0.13
1585341.667,-0.165
1585344.444,-0.225
1585347.222,-0.27
1585350,-0.305
1585352.778,-0.33
1585355.556,-0.335
1585358.333,-0.335
1585361.111,-0.35
1585363.889,-0.375
1585366.667,-0.385
1585369.444,-0.39
1585372.222,-0.39
1585375,-0.39
1585377.778,-0.425
1585380.556,-0.45
1585383.333,-0.435
1585386.111,-0.405
1585388.889,-0.39
1585391.667,-0.35
1585394.444,-0.335
1585397.222,-0.33
1585400,-0.34
1585402.778,-0.32
1585405.556,-0.29
1585408.333,-0.275
1585411.111,-0.24
1585413.889,-0.225
1585416.667,-0.185
1585419.444,-0.155
1585422.222,-0.13
1585425,-0.11
1585427.778,-0.11
1585430.556,-0.1
1585433.333,-0.09
1585436.111,-0.075
1585438.889,-0.075
1585441.667,-0.075
1585444.444,-0.07
1585447.222,-0.08
1585450,-0.08
1585452.778,-0.09
1585455.556,-0.08
1585458.333,-0.085
1585461.111,-0.095
1585463.889,-0.13
1585466.667,-0.145
1585469.444,-0.14
1585472.222,-0.12
1585475,-0.125
1585477.778,-0.13
1585480.556,-0.145
1585483.333,-0.155
1585486.111,-0.16
1585488.889,-0.145
1585491.667,-0.145
1585494.444,-0.14
1585497.222,-0.13
1585500,-0.13
1585502.778,-0.125
1585505.556,-0.095
1585508.333,-0.07
1585511.111,-0.07
1585513.889,-0.07
1585516.667,-0.06
1585519.444,-0.05
1585522.222,-0.05
1585525,-0.035
1585527.778,-0.02
1585530.556,-0.015
1585533.333,0.01
1585536.111,0.025
1585538.889,0.055
1585541.667,0.075
1585544.444,0.09
1585547.222,0.09
1585550,0.1
1585552.778,0.145
1585555.556,0.21
1585558.333,0.24
1585561.111,0.29
1585563.889,0.34
1585566.667,0.35
1585569.444,0.35
1585572.222,0.37
1585575,0.42
1585577.778,0.415
1585580.556,0.36
1585583.333,0.31
1585586.111,0.235
1585588.889,0.18
1585591.667,0.135
1585594.444,0.08
1585597.222,0.04
1585600,-0.04
1585602.778,-0.11
1585605.556,-0.16
1585608.333,-0.17
1585611.111,-0.165
1585613.889,-0.185
1585616.667,-0.195
1585619.444,-0.215
1585622.222,-0.235
1585625,-0.24
1585627.778,-0.245
1585630.556,-0.255
1585633.333,-0.3
1585636.111,-0.35
1585638.889,-0.36
1585641.667,-0.385
1585644.444,-0.41
1585647.222,-0.415
1585650,-0.415
1585652.778,-0.395
1585655.556,-0.385
1585658.333,-0.38
1585661.111,-0.37
1585663.889,-0.375
1585666.667,-0.36
1585669.444,-0.35
1585672.222,-0.325
1585675,-0.295
1585677.778,-0.27
1585680.556,-0.25
1585683.333,-0.2
1585686.111,-0.175
1585688.889,-0.145
1585691.667,-0.14
1585694.444,-0.125
1585697.222,-0.115
1585700,-0.12
1585702.778,-0.1
1585705.556,-0.085
1585708.333,-0.055
1585711.111,-0.085
1585713.889,-0.085
1585716.667,-0.11
1585719.444,-0.095
1585722.222,-0.1
1585725,-0.08
1585727.778,-0.095
1585730.556,-0.095
1585733.333,-0.085
1585736.111,-0.05
1585738.889,-0.015
1585741.667,-0.005
1585744.444,0.015
1585747.222,0.015
1585750,0.005
1585752.778,-0.025
1585755.556,-0.035
1585758.333,-0.005
1585761.111,0.045
1585763.889,0.06
1585766.667,0.08
1585769.444,0.085
1585772.222,0.09
1585775,0.12
1585777.778,0.125
1585780.556,0.125
1585783.333,0.12
1585786.111,0.155
1585788.889,0.195
1585791.667,0.22
1585794.444,0.215
1585797.222,0.205
1585800,0.225
1585802.778,0.26
1585805.556,0.3
1585808.333,0.32
1585811.111,0.335
1585813.889,0.34
1585816.667,0.365
1585819.444,0.395
1585822.222,0.435
1585825,0.48
1585827.778,0.525
1585830.556,0.545
1585833.333,0.52
1585836.111,0.47
1585838.889,0.405
1585841.667,0.355
1585844.444,0.3
1585847.222,0.255
1585850,0.175
1585852.778,0.135
1585855.556,0.105
1585858.333,0.045
1585861.111,-0.005
1585863.889,-0.08
1585866.667,-0.115
1585869.444,-0.11
1585872.222,-0.08
1585875,-0.075
1585877.778,-0.07
1585880.556,-0.09
1585883.333,-0.12
1585886.111,-0.12
1585888.889,-0.12
1585891.667,-0.145
1585894.444,-0.19
1585897.222,-0.215
1585900,-0.25
1585902.778,-0.26
1585905.556,-0.245
1585908.333,-0.24
1585911.111,-0.235
1585913.889,-0.26
1585916.667,-0.275
1585919.444,-0.27
1585922.222,-0.24
1585925,-0.23
1585927.778,-0.2
1585930.556,-0.205
1585933.333,-0.2
1585936.111,-0.19
1585938.889,-0.16
1585941.667,-0.09
1585944.444,-0.065
1585947.222,-0.07
1585950,-0.075
1585952.778,-0.065
1585955.556,-0.03
1585958.333,-0.025
1585961.111,-0.04
1585963.889,-0.04
1585966.667,-0.04
1585969.444,-0.035
1585972.222,-0.035
1585975,-0.05
1585977.778,-0.075
1585980.556,-0.105
1585983.333,-0.075
1585986.111,-0.035
1585988.889,0.005
1585991.667,0
1585994.444,-0.035
1585997.222,-0.1
1586000,-0.13
1586002.778,-0.075
1586005.556,-0.015
1586008.333,0.02
1586011.111,0.035
1586013.889,0.055
1586016.667,0.045
1586019.444,-0.01
1586022.222,-0.005
1586025,0
1586027.778,0.03
1586030.556,0.035
1586033.333,0.045
1586036.111,0.09
1586038.889,0.145
1586041.667,0.16
1586044.444,0.15
1586047.222,0.115
1586050,0.1
1586052.778,0.125
1586055.556,0.17
1586058.333,0.2
1586061.111,0.195
1586063.889,0.165
1586066.667,0.185
1586069.444,0.255
1586072.222,0.315
1586075,0.325
1586077.778,0.315
1586080.556,0.3
1586083.333,0.3
1586086.111,0.355
1586088.889,0.45
1586091.667,0.53
1586094.444,0.58
1586097.222,0.585
1586100,0.535
1586102.778,0.475
1586105.556,0.405
1586108.333,0.355
1586111.111,0.32
1586113.889,0.265
1586116.667,0.205
1586119.444,0.15
1586122.222,0.1
1586125,0.06
1586127.778,0.02
1586130.556,0
1586133.333,-0.01
1586136.111,-0.04
1586138.889,-0.035
1586141.667,-0.015
1586144.444,-0.025
1586147.222,-0.05
1586150,-0.06
1586152.778,-0.04
1586155.556,0.005
1586158.333,0.01
1586161.111,0.005
1586163.889,-0.02
1586166.667,-0.09
1586169.444,-0.135
1586172.222,-0.13
1586175,-0.09
1586177.778,-0.085
1586180.556,-0.12
1586183.333,-0.14
1586186.111,-0.1
1586188.889,-0.06
1586191.667,-0.04
1586194.444,-0.015
1586197.222,-0.025
1586200,0.015
1586202.778,0.09
1586205.556,0.16
1586208.333,0.155
1586211.111,0.105
1586213.889,0.17
1586216.667,0.26
1586219.444,0.33
1586222.222,0.32
1586225,0.265
1586227.778,0.225
1586230.556,0.245
1586233.333,0.255
1586236.111,0.27
1586238.889,0.295
1586241.667,0.325
1586244.444,0.335
1586247.222,0.295
1586250,0.235
1586252.778,0.19
1586255.556,0.205
1586258.333,0.245
1586261.111,0.245
1586263.889,0.23
1586266.667,0.25
1586269.444,0.3
1586272.222,0.345
1586275,0.33
1586277.778,0.29
1586280.556,0.25
1586283.333,0.28
1586286.111,0.345
1586288.889,0.385
1586291.667,0.38
1586294.444,0.33
1586297.222,0.28
1586300,0.315
1586302.778,0.395
1586305.556,0.435
1586308.333,0.4
1586311.111,0.38
1586313.889,0.395
1586316.667,0.44
1586319.444,0.46
1586322.222,0.425
1586325,0.445
1586327.778,0.48
1586330.556,0.515
1586333.333,0.52
1586336.111,0.55
1586338.889,0.6
1586341.667,0.665
1586344.444,0.715
1586347.222,0.745
1586350,0.765
1586352.778,0.77
1586355.556,0.755
1586358.333,0.715
1586361.111,0.645
1586363.889,0.555
1586366.667,0.48
1586369.444,0.385
1586372.222,0.355
1586375,0.3
1586377.778,0.175
1586380.556,0.055
1586383.333,-0.02
1586386.111,-0.05
1586388.889,-0.055
1586391.667,-0.08
1586394.444,-0.08
1586397.222,-0.1
1586400,-0.12
1586402.778,-0.125
1586405.556,-0.11
1586408.333,-0.11
1586411.111,-0.13
1586413.889,-0.19
1586416.667,-0.23
1586419.444,-0.235
1586422.222,-0.245
1586425,-0.29
1586427.778,-0.325
1586430.556,-0.29
1586433.333,-0.285
1586436.111,-0.3
1586438.889,-0.295
1586441.667,-0.25
1586444.444,-0.225
1586447.222,-0.215
1586450,-0.2
1586452.778,-0.16
1586455.556,-0.09
1586458.333,-0.04
1586461.111,-0.02
1586463.889,-0.025
1586466.667,-0.01
1586469.444,0.035
1586472.222,0.11
1586475,0.155
1586477.778,0.15
1586480.556,0.135
1586483.333,0.155
1586486.111,0.15
1586488.889,0.19
1586491.667,0.205
1586494.444,0.23
1586497.222,0.205
1586500,0.2
1586502.778,0.225
1586505.556,0.24
1586508.333,0.245
1586511.111,0.255
1586513.889,0.27
1586516.667,0.27
1586519.444,0.275
1586522.222,0.295
1586525,0.345
1586527.778,0.385
1586530.556,0.355
1586533.333,0.37
1586536.111,0.4
1586538.889,0.415
1586541.667,0.375
1586544.444,0.345
1586547.222,0.37
1586550,0.41
1586552.778,0.44
1586555.556,0.435
1586558.333,0.42
1586561.111,0.41
1586563.889,0.46
1586566.667,0.51
1586569.444,0.53
1586572.222,0.51
1586575,0.48
1586577.778,0.505
1586580.556,0.545
1586583.333,0.565
1586586.111,0.59
1586588.889,0.625
1586591.667,0.66
1586594.444,0.685
1586597.222,0.675
1586600,0.71
1586602.778,0.745
1586605.556,0.775
1586608.333,0.785
1586611.111,0.8
1586613.889,0.825
1586616.667,0.845
1586619.444,0.84
1586622.222,0.795
1586625,0.72
1586627.778,0.625
1586630.556,0.545
1586633.333,0.45
1586636.111,0.375
1586638.889,0.3
1586641.667,0.21
1586644.444,0.135
1586647.222,0.075
1586650,0.04
1586652.778,0.055
1586655.556,0.085
1586658.333,0.055
1586661.111,0
1586663.889,-0.08
1586666.667,-0.09
1586669.444,-0.055
1586672.222,-0.04
1586675,-0.055
1586677.778,-0.085
1586680.556,-0.115
1586683.333,-0.155
1586686.111,-0.195
1586688.889,-0.215
1586691.667,-0.225
1586694.444,-0.205
1586697.222,-0.17
1586700,-0.175
1586702.778,-0.215
1586705.556,-0.23
1586708.333,-0.21
1586711.111,-0.175
1586713.889,-0.135
1586716.667,-0.115
1586719.444,-0.085
1586722.222,-0.045
1586725,-0.035
1586727.778,-0.04
1586730.556,-0.065
1586733.333,-0.055
1586736.111,-0.01
1586738.889,0.035
1586741.667,0.07
1586744.444,0.055
1586747.222,0.045
1586750,0.04
1586752.778,0.035
1586755.556,0.05
1586758.333,0.05
1586761.111,0.02
1586763.889,0
1586766.667,-0.005
1586769.444,0
1586772.222,-0.01
1586775,-0.01
1586777.778,0.02
1586780.556,0.055
1586783.333,0.055
1586786.111,0.045
1586788.889,0.07
1586791.667,0.09
1586794.444,0.09
1586797.222,0.09
1586800,0.1
1586802.778,0.15
1586805.556,0.18
1586808.333,0.2
1586811.111,0.205
1586813.889,0.2
1586816.667,0.23
1586819.444,0.285
1586822.222,0.345
1586825,0.345
1586827.778,0.35
1586830.556,0.38
1586833.333,0.42
1586836.111,0.445
1586838.889,0.475
1586841.667,0.515
1586844.444,0.56
1586847.222,0.58
1586850,0.585
1586852.778,0.625
1586855.556,0.655
1586858.333,0.69
1586861.111,0.74
1586863.889,0.815
1586866.667,0.845
1586869.444,0.865
1586872.222,0.87
1586875,0.875
1586877.778,0.895
1586880.556,0.935
1586883.333,0.965
1586886.111,0.98
1586888.889,0.955
1586891.667,0.915
1586894.444,0.845
1586897.222,0.74
1586900,0.6
1586902.778,0.485
1586905.556,0.42
1586908.333,0.4
1586911.111,0.315
1586913.889,0.215
1586916.667,0.135
1586919.444,0.085
1586922.222,0.05
1586925,0.01
1586927.778,-0.015
1586930.556,-0.045
1586933.333,-0.025
1586936.111,-0.005
1586938.889,-0.015
1586941.667,-0.055
1586944.444,-0.12
1586947.222,-0.18
1586950,-0.2
1586952.778,-0.165
1586955.556,-0.145
1586958.333,-0.18
1586961.111,-0.24
1586963.889,-0.275
1586966.667,-0.295
1586969.444,-0.275
1586972.222,-0.235
1586975,-0.22
1586977.778,-0.24
1586980.556,-0.245
1586983.333,-0.225
1586986.111,-0.175
1586988.889,-0.135
1586991.667,-0.09
1586994.444,-0.045
1586997.222,-0.035
1587000,-0.025
1587002.778,-0.005
1587005.556,0.02
1587008.333,0.065
1587011.111,0.095
1587013.889,0.085
1587016.667,0.06
1587019.444,0.045
1587022.222,0.035
1587025,0.05
1587027.778,0.065
1587030.556,0.055
1587033.333,0.03
1587036.111,-0.005
1587038.889,-0.025
1587041.667,0.01
1587044.444,0.07
1587047.222,0.13
1587050,0.12
1587052.778,0.09
1587055.556,0.075
1587058.333,0.075
1587061.111,0.065
1587063.889,0.035
1587066.667,0.06
1587069.444,0.13
1587072.222,0.16
1587075,0.15
1587077.778,0.115
1587080.556,0.095
1587083.333,0.125
1587086.111,0.175
1587088.889,0.22
1587091.667,0.255
1587094.444,0.265
1587097.222,0.27
1587100,0.29
1587102.778,0.315
1587105.556,0.325
1587108.333,0.31
1587111.111,0.315
1587113.889,0.34
1587116.667,0.395
1587119.444,0.45
1587122.222,0.485
1587125,0.52
1587127.778,0.565
1587130.556,0.6
1587133.333,0.615
1587136.111,0.645
1587138.889,0.69
1587141.667,0.76
1587144.444,0.815
1587147.222,0.815
1587150,0.765
1587152.778,0.705
1587155.556,0.65
1587158.333,0.62
1587161.111,0.58
1587163.889,0.51
1587166.667,0.44
1587169.444,0.355
1587172.222,0.295
1587175,0.235
1587177.778,0.16
1587180.556,0.09
1587183.333,0.045
1587186.111,0.05
1587188.889,0.075
1587191.667,0.085
1587194.444,0.055
1587197.222,0.015
1587200,0
1587202.778,-0.015
1587205.556,-0.015
1587208.333,-0.03
1587211.111,-0.05
1587213.889,-0.105
1587216.667,-0.14
1587219.444,-0.145
1587222.222,-0.12
1587225,-0.115
1587227.778,-0.15
1587230.556,-0.145
1587233.333,-0.14
1587236.111,-0.1
1587238.889,-0.075
1587241.667,-0.05
1587244.444,-0.035
1587247.222,-0.02
1587250,-0.005
1587252.778,0.04
1587255.556,0.095
1587258.333,0.135
1587261.111,0.15
1587263.889,0.14
1587266.667,0.155
1587269.444,0.2
1587272.222,0.225
1587275,0.225
1587277.778,0.2
1587280.556,0.2
1587283.333,0.21
1587286.111,0.23
1587288.889,0.24
1587291.667,0.245
1587294.444,0.225
1587297.222,0.205
1587300,0.215
1587302.778,0.23
1587305.556,0.235
1587308.333,0.24
1587311.111,0.235
1587313.889,0.24
1587316.667,0.235
1587319.444,0.24
1587322.222,0.215
1587325,0.22
1587327.778,0.215
1587330.556,0.23
1587333.333,0.23
1587336.111,0.25
1587338.889,0.295
1587341.667,0.32
1587344.444,0.325
1587347.222,0.33
1587350,0.32
1587352.778,0.315
1587355.556,0.33
1587358.333,0.345
1587361.111,0.365
1587363.889,0.365
1587366.667,0.36
1587369.444,0.365
1587372.222,0.385
1587375,0.37
1587377.778,0.37
1587380.556,0.35
1587383.333,0.375
1587386.111,0.425
1587388.889,0.48
1587391.667,0.54
1587394.444,0.56
1587397.222,0.54
1587400,0.505
1587402.778,0.475
1587405.556,0.445
1587408.333,0.405
1587411.111,0.35
1587413.889,0.305
1587416.667,0.25
1587419.444,0.17
1587422.222,0.085
1587425,0.025
1587427.778,-0.035
1587430.556,-0.09
1587433.333,-0.14
1587436.111,-0.18
1587438.889,-0.185
1587441.667,-0.205
1587444.444,-0.21
1587447.222,-0.22
1587450,-0.195
1587452.778,-0.17
1587455.556,-0.17
1587458.333,-0.195
1587461.111,-0.235
1587463.889,-0.29
1587466.667,-0.335
1587469.444,-0.355
1587472.222,-0.36
1587475,-0.34
1587477.778,-0.33
1587480.556,-0.345
1587483.333,-0.335
1587486.111,-0.33
1587488.889,-0.3
1587491.667,-0.26
1587494.444,-0.26
1587497.222,-0.26
1587500,-0.285
1587502.778,-0.28
1587505.556,-0.24
1587508.333,-0.18
1587511.111,-0.09
1587513.889,-0.03
1587516.667,-0.01
1587519.444,-0.02
1587522.222,-0.035
1587525,-0.02
1587527.778,0.02
1587530.556,0.025
1587533.333,0.005
1587536.111,-0.01
1587538.889,0.025
1587541.667,0.05
1587544.444,0.06
1587547.222,0.04
1587550,0.01
1587552.778,0.025
1587555.556,0.03
1587558.333,0.04
1587561.111,0.035
1587563.889,0.025
1587566.667,0
1587569.444,0.015
1587572.222,0.035
1587575,0.06
1587577.778,0.06
1587580.556,0.045
1587583.333,0.02
1587586.111,0.005
1587588.889,0.015
1587591.667,0.01
1587594.444,0.01
1587597.222,0.035
1587600,0.07
1587602.778,0.08
1587605.556,0.09
1587608.333,0.09
1587611.111,0.07
1587613.889,0.08
1587616.667,0.06
1587619.444,0.055
1587622.222,0.065
1587625,0.11
1587627.778,0.165
1587630.556,0.175
1587633.333,0.155
1587636.111,0.14
1587638.889,0.155
1587641.667,0.175
1587644.444,0.22
1587647.222,0.26
1587650,0.305
1587652.778,0.32
1587655.556,0.325
1587658.333,0.345
1587661.111,0.34
1587663.889,0.32
1587666.667,0.255
1587669.444,0.22
1587672.222,0.185
1587675,0.145
1587677.778,0.105
1587680.556,0.06
1587683.333,0.01
1587686.111,-0.015
1587688.889,-0.05
1587691.667,-0.075
1587694.444,-0.095
1587697.222,-0.17
1587700,-0.21
1587702.778,-0.245
1587705.556,-0.275
1587708.333,-0.27
1587711.111,-0.3
1587713.889,-0.325
1587716.667,-0.355
1587719.444,-0.38
1587722.222,-0.43
1587725,-0.475
1587727.778,-0.51
1587730.556,-0.5
1587733.333,-0.485
1587736.111,-0.465
1587738.889,-0.505
1587741.667,-0.545
1587744.444,-0.525
1587747.222,-0.49
1587750,-0.48
1587752.778,-0.485
1587755.556,-0.44
1587758.333,-0.365
1587761.111,-0.345
1587763.889,-0.37
1587766.667,-0.365
1587769.444,-0.33
1587772.222,-0.305
1587775,-0.335
1587777.778,-0.345
1587780.556,-0.325
1587783.333,-0.27
1587786.111,-0.245
1587788.889,-0.25
1587791.667,-0.27
1587794.444,-0.26
1587797.222,-0.23
1587800,-0.21
1587802.778,-0.175
1587805.556,-0.165
1587808.333,-0.175
1587811.111,-0.195
1587813.889,-0.215
1587816.667,-0.24
1587819.444,-0.18
1587822.222,-0.155
1587825,-0.17
1587827.778,-0.205
1587830.556,-0.205
1587833.333,-0.175
1587836.111,-0.165
1587838.889,-0.195
1587841.667,-0.2
1587844.444,-0.195
1587847.222,-0.205
1587850,-0.18
1587852.778,-0.135
1587855.556,-0.115
1587858.333,-0.125
1587861.111,-0.11
1587863.889,-0.095
1587866.667,-0.14
1587869.444,-0.185
1587872.222,-0.17
1587875,-0.095
1587877.778,-0.055
1587880.556,-0.05
1587883.333,-0.055
1587886.111,-0.065
1587888.889,-0.1
1587891.667,-0.105
1587894.444,-0.08
1587897.222,-0.015
1587900,0
1587902.778,0.015
1587905.556,0.055
1587908.333,0.095
1587911.111,0.145
1587913.889,0.155
1587916.667,0.15
1587919.444,0.18
1587922.222,0.19
1587925,0.195
1587927.778,0.155
1587930.556,0.08
1587933.333,0.025
1587936.111,0.025
1587938.889,0.025
1587941.667,0.03
1587944.444,0.01
1587947.222,-0.06
1587950,-0.15
1587952.778,-0.21
1587955.556,-0.255
1587958.333,-0.28
1587961.111,-0.25
1587963.889,-0.185
1587966.667,-0.165
1587969.444,-0.205
1587972.222,-0.285
1587975,-0.315
1587977.778,-0.33
1587980.556,-0.345
1587983.333,-0.355
1587986.111,-0.33
1587988.889,-0.305
1587991.667,-0.28
1587994.444,-0.29
1587997.222,-0.35
1588000,-0.425
1588002.778,-0.45
1588005.556,-0.38
1588008.333,-0.305
1588011.111,-0.315
1588013.889,-0.38
1588016.667,-0.405
1588019.444,-0.33
1588022.222,-0.26
1588025,-0.24
1588027.778,-0.285
1588030.556,-0.34
1588033.333,-0.29
1588036.111,-0.2
1588038.889,-0.175
1588041.667,-0.21
1588044.444,-0.245
1588047.222,-0.23
1588050,-0.25
1588052.778,-0.26
1588055.556,-0.25
1588058.333,-0.26
1588061.111,-0.315
1588063.889,-0.36
1588066.667,-0.345
1588069.444,-0.32
1588072.222,-0.335
1588075,-0.395
1588077.778,-0.41
1588080.556,-0.37
1588083.333,-0.355
1588086.111,-0.375
1588088.889,-0.405
1588091.667,-0.39
1588094.444,-0.365
1588097.222,-0.32
1588100,-0.3
1588102.778,-0.315
1588105.556,-0.36
1588108.333,-0.395
1588111.111,-0.415
1588113.889,-0.385
1588116.667,-0.355
1588119.444,-0.32
1588122.222,-0.26
1588125,-0.245
1588127.778,-0.3
1588130.556,-0.355
1588133.333,-0.33
1588136.111,-0.26
1588138.889,-0.225
1588141.667,-0.26
1588144.444,-0.335
1588147.222,-0.35
1588150,-0.295
1588152.778,-0.25
1588155.556,-0.185
1588158.333,-0.125
1588161.111,-0.1
1588163.889,-0.155
1588166.667,-0.23
1588169.444,-0.21
1588172.222,-0.13
1588175,-0.125
1588177.778,-0.16
1588180.556,-0.18
1588183.333,-0.215
1588186.111,-0.235
1588188.889,-0.24
1588191.667,-0.255
1588194.444,-0.3
1588197.222,-0.335
1588200,-0.33
1588202.778,-0.285
1588205.556,-0.255
1588208.333,-0.245
1588211.111,-0.3
1588213.889,-0.32
1588216.667,-0.285
1588219.444,-0.235
1588222.222,-0.215
1588225,-0.205
1588227.778,-0.17
1588230.556,-0.155
1588233.333,-0.175
1588236.111,-0.25
1588238.889,-0.315
1588241.667,-0.29
1588244.444,-0.22
1588247.222,-0.175
1588250,-0.185
1588252.778,-0.22
1588255.556,-0.225
1588258.333,-0.215
1588261.111,-0.23
1588263.889,-0.295
1588266.667,-0.305
1588269.444,-0.2
1588272.222,-0.035
1588275,0.085
1588277.778,0.08
1588280.556,0.02
1588283.333,-0.03
1588286.111,-0.07
1588288.889,-0.13
1588291.667,-0.08
1588294.444,0.015
1588297.222,0.03
1588300,0.015
1588302.778,0.035
1588305.556,0.065
1588308.333,0.03
1588311.111,-0.075
1588313.889,-0.14
1588316.667,-0.235
1588319.444,-0.23
1588322.222,-0.125
1588325,0.02
1588327.778,0.03
1588330.556,-0.09
1588333.333,-0.265
1588336.111,-0.365
1588338.889,-0.305
1588341.667,-0.165
1588344.444,-0.11
1588347.222,-0.17
1588350,-0.27
1588352.778,-0.33
1588355.556,-0.28
1588358.333,-0.255
1588361.111,-0.27
1588363.889,-0.285
1588366.667,-0.26
1588369.444,-0.21
1588372.222,-0.21
1588375,-0.25
1588377.778,-0.32
1588380.556,-0.38
1588383.333,-0.36
1588386.111,-0.255
1588388.889,-0.125
1588391.667,-0.12
1588394.444,-0.25
1588397.222,-0.36
1588400,-0.34
1588402.778,-0.305
1588405.556,-0.305
1588408.333,-0.3
1588411.111,-0.27
1588413.889,-0.24
1588416.667,-0.245
1588419.444,-0.275
1588422.222,-0.285
1588425,-0.245
1588427.778,-0.19
1588430.556,-0.175
1588433.333,-0.195
1588436.111,-0.23
1588438.889,-0.245
1588441.667,-0.24
1588444.444,-0.21
1588447.222,-0.195
1588450,-0.26
1588452.778,-0.37
1588455.556,-0.42
1588458.333,-0.39
1588461.111,-0.33
1588463.889,-0.3
1588466.667,-0.35
1588469.444,-0.375
1588472.222,-0.35
1588475,-0.325
1588477.778,-0.335
1588480.556,-0.395
1588483.333,-0.4
1588486.111,-0.375
1588488.889,-0.335
1588491.667,-0.295
1588494.444,-0.315
1588497.222,-0.365
1588500,-0.37
1588502.778,-0.385
1588505.556,-0.36
1588508.333,-0.305
1588511.111,-0.27
1588513.889,-0.285
1588516.667,-0.32
1588519.444,-0.305
1588522.222,-0.27
1588525,-0.23
1588527.778,-0.215
1588530.556,-0.22
1588533.333,-0.215
1588536.111,-0.18
1588538.889,-0.155
1588541.667,-0.105
1588544.444,-0.025
1588547.222,0.005
1588550,-0.015
1588552.778,-0.05
1588555.556,0.025
1588558.333,0.16
1588561.111,0.18
1588563.889,0.055
1588566.667,-0.05
1588569.444,-0.015
1588572.222,0.125
1588575,0.2
1588577.778,0.16
1588580.556,0.135
1588583.333,0.15
1588586.111,0.14
1588588.889,0.085
1588591.667,0.04
1588594.444,0.04
1588597.222,0.005
1588600,-0.045
1588602.778,-0.025
1588605.556,0.015
1588608.333,-0.015
1588611.111,-0.105
1588613.889,-0.15
1588616.667,-0.095
1588619.444,-0.015
1588622.222,0.01
1588625,0.01
1588627.778,-0.005
1588630.556,-0.035
1588633.333,-0.11
1588636.111,-0.215
1588638.889,-0.22
1588641.667,-0.165
1588644.444,-0.12
1588647.222,-0.13
1588650,-0.14
1588652.778,-0.12
1588655.556,-0.125
1588658.333,-0.155
1588661.111,-0.16
1588663.889,-0.14
1588666.667,-0.165
1588669.444,-0.235
1588672.222,-0.295
1588675,-0.275
1588677.778,-0.22
1588680.556,-0.17
1588683.333,-0.18
1588686.111,-0.22
1588688.889,-0.29
1588691.667,-0.35
1588694.444,-0.32
1588697.222,-0.27
1588700,-0.215
1588702.778,-0.185
1588705.556,-0.195
1588708.333,-0.18
1588711.111,-0.155
1588713.889,-0.205
1588716.667,-0.32
1588719.444,-0.405
1588722.222,-0.415
1588725,-0.42
1588727.778,-0.46
1588730.556,-0.455
1588733.333,-0.485
1588736.111,-0.545
1588738.889,-0.57
1588741.667,-0.525
1588744.444,-0.5
1588747.222,-0.51
1588750,-0.535
1588752.778,-0.515
1588755.556,-0.52
1588758.333,-0.575
1588761.111,-0.56
1588763.889,-0.505
1588766.667,-0.465
1588769.444,-0.47
1588772.222,-0.53
1588775,-0.605
1588777.778,-0.595
1588780.556,-0.535
1588783.333,-0.475
1588786.111,-0.48
1588788.889,-0.56
1588791.667,-0.6
1588794.444,-0.625
1588797.222,-0.57
1588800,-0.51
1588802.778,-0.47
1588805.556,-0.45
1588808.333,-0.415
1588811.111,-0.37
1588813.889,-0.27
1588816.667,-0.205
1588819.444,-0.17
1588822.222,-0.175
1588825,-0.2
1588827.778,-0.19
1588830.556,-0.105
