1430000,-0.22
1430002.778,-0.215
1430005.556,-0.22
1430008.333,-0.235
1430011.111,-0.24
1430013.889,-0.24
1430016.667,-0.23
1430019.444,-0.23
1430022.222,-0.225
1430025,-0.24
1430027.778,-0.245
1430030.556,-0.23
1430033.333,-0.225
1430036.111,-0.225
1430038.889,-0.23
1430041.667,-0.235
1430044.444,-0.225
1430047.222,-0.225
1430050,-0.225
1430052.778,-0.23
1430055.556,-0.23
1430058.333,-0.235
1430061.111,-0.235
1430063.889,-0.23
1430066.667,-0.23
1430069.444,-0.225
1430072.222,-0.235
1430075,-0.24
1430077.778,-0.23
1430080.556,-0.225
1430083.333,-0.22
1430086.111,-0.225
1430088.889,-0.24
1430091.667,-0.245
1430094.444,-0.25
1430097.222,-0.24
1430100,-0.235
1430102.778,-0.23
1430105.556,-0.24
1430108.333,-0.245
1430111.111,-0.24
1430113.889,-0.24
1430116.667,-0.225
1430119.444,-0.235
1430122.222,-0.235
1430125,-0.25
1430127.778,-0.25
1430130.556,-0.24
1430133.333,-0.23
1430136.111,-0.24
1430138.889,-0.255
1430141.667,-0.25
1430144.444,-0.255
1430147.222,-0.24
1430150,-0.235
1430152.778,-0.235
1430155.556,-0.245
1430158.333,-0.245
1430161.111,-0.245
1430163.889,-0.24
1430166.667,-0.235
1430169.444,-0.245
1430172.222,-0.25
1430175,-0.265
1430177.778,-0.25
1430180.556,-0.24
1430183.333,-0.235
1430186.111,-0.24
1430188.889,-0.255
1430191.667,-0.25
1430194.444,-0.245
1430197.222,-0.24
1430200,-0.245
1430202.778,-0.25
1430205.556,-0.255
1430208.333,-0.25
1430211.111,-0.25
1430213.889,-0.23
1430216.667,-0.235
1430219.444,-0.235
1430222.222,-0.245
1430225,-0.245
1430227.778,-0.245
1430230.556,-0.24
1430233.333,-0.23
1430236.111,-0.23
1430238.889,-0.245
1430241.667,-0.255
1430244.444,-0.24
1430247.222,-0.235
1430250,-0.235
1430252.778,-0.235
1430255.556,-0.24
1430258.333,-0.26
1430261.111,-0.245
1430263.889,-0.235
1430266.667,-0.23
1430269.444,-0.235
1430272.222,-0.245
1430275,-0.26
1430277.778,-0.25
1430280.556,-0.245
1430283.333,-0.23
1430286.111,-0.235
1430288.889,-0.24
1430291.667,-0.25
1430294.444,-0.255
1430297.222,-0.24
1430300,-0.235
1430302.778,-0.235
1430305.556,-0.245
1430308.333,-0.255
1430311.111,-0.25
1430313.889,-0.25
1430316.667,-0.24
1430319.444,-0.23
1430322.222,-0.24
1430325,-0.255
1430327.778,-0.25
1430330.556,-0.255
1430333.333,-0.235
1430336.111,-0.235
1430338.889,-0.24
1430341.667,-0.24
1430344.444,-0.235
1430347.222,-0.24
1430350,-0.24
1430352.778,-0.235
1430355.556,-0.24
1430358.333,-0.24
1430361.111,-0.24
1430363.889,-0.23
1430366.667,-0.23
1430369.444,-0.24
1430372.222,-0.245
1430375,-0.245
1430377.778,-0.245
1430380.556,-0.235
1430383.333,-0.23
1430386.111,-0.23
1430388.889,-0.245
1430391.667,-0.25
1430394.444,-0.245
1430397.222,-0.24
1430400,-0.225
1430402.778,-0.235
1430405.556,-0.24
1430408.333,-0.245
1430411.111,-0.24
1430413.889,-0.23
1430416.667,-0.23
1430419.444,-0.235
1430422.222,-0.245
1430425,-0.25
1430427.778,-0.245
1430430.556,-0.235
1430433.333,-0.23
1430436.111,-0.235
1430438.889,-0.24
1430441.667,-0.25
1430444.444,-0.245
1430447.222,-0.235
1430450,-0.23
1430452.778,-0.23
1430455.556,-0.24
1430458.333,-0.245
1430461.111,-0.24
1430463.889,-0.235
1430466.667,-0.225
1430469.444,-0.225
1430472.222,-0.22
1430475,-0.235
1430477.778,-0.225
1430480.556,-0.215
1430483.333,-0.195
1430486.111,-0.185
1430488.889,-0.18
1430491.667,-0.195
1430494.444,-0.175
1430497.222,-0.165
1430500,-0.155
1430502.778,-0.15
1430505.556,-0.135
1430508.333,-0.155
1430511.111,-0.135
1430513.889,-0.13
1430516.667,-0.125
1430519.444,-0.13
1430522.222,-0.135
1430525,-0.135
1430527.778,-0.125
1430530.556,-0.115
1430533.333,-0.12
1430536.111,-0.12
1430538.889,-0.14
1430541.667,-0.15
1430544.444,-0.145
1430547.222,-0.155
1430550,-0.145
1430552.778,-0.16
1430555.556,-0.17
1430558.333,-0.18
1430561.111,-0.18
1430563.889,-0.17
1430566.667,-0.185
1430569.444,-0.19
1430572.222,-0.2
1430575,-0.22
1430577.778,-0.22
1430580.556,-0.225
1430583.333,-0.23
1430586.111,-0.245
1430588.889,-0.255
1430591.667,-0.265
1430594.444,-0.255
1430597.222,-0.255
1430600,-0.24
1430602.778,-0.26
1430605.556,-0.265
1430608.333,-0.275
1430611.111,-0.27
1430613.889,-0.26
1430616.667,-0.255
1430619.444,-0.265
1430622.222,-0.265
1430625,-0.26
1430627.778,-0.265
1430630.556,-0.26
1430633.333,-0.245
1430636.111,-0.26
1430638.889,-0.255
1430641.667,-0.27
1430644.444,-0.265
1430647.222,-0.255
1430650,-0.25
1430652.778,-0.26
1430655.556,-0.26
1430658.333,-0.28
1430661.111,-0.26
1430663.889,-0.265
1430666.667,-0.255
1430669.444,-0.255
1430672.222,-0.265
1430675,-0.265
1430677.778,-0.26
1430680.556,-0.24
1430683.333,-0.22
1430686.111,-0.215
1430688.889,-0.2
1430691.667,-0.18
1430694.444,-0.18
1430697.222,-0.15
1430700,-0.075
1430702.778,-0.005
1430705.556,0.085
1430708.333,0.16
1430711.111,0.25
1430713.889,0.375
1430716.667,0.48
1430719.444,0.555
1430722.222,0.63
1430725,0.715
1430727.778,0.795
1430730.556,0.795
1430733.333,0.72
1430736.111,0.56
1430738.889,0.36
1430741.667,0.17
1430744.444,-0.005
1430747.222,-0.13
1430750,-0.21
1430752.778,-0.27
1430755.556,-0.295
1430758.333,-0.275
1430761.111,-0.235
1430763.889,-0.21
1430766.667,-0.205
1430769.444,-0.205
1430772.222,-0.225
1430775,-0.26
1430777.778,-0.265
1430780.556,-0.25
1430783.333,-0.26
1430786.111,-0.27
1430788.889,-0.275
1430791.667,-0.275
1430794.444,-0.28
1430797.222,-0.27
1430800,-0.275
1430802.778,-0.28
1430805.556,-0.285
1430808.333,-0.28
1430811.111,-0.275
1430813.889,-0.28
1430816.667,-0.29
1430819.444,-0.295
1430822.222,-0.29
1430825,-0.3
1430827.778,-0.305
1430830.556,-0.29
1430833.333,-0.275
1430836.111,-0.275
1430838.889,-0.28
1430841.667,-0.3
1430844.444,-0.285
1430847.222,-0.275
1430850,-0.27
1430852.778,-0.265
1430855.556,-0.275
1430858.333,-0.28
1430861.111,-0.27
1430863.889,-0.265
1430866.667,-0.265
1430869.444,-0.27
1430872.222,-0.265
1430875,-0.28
1430877.778,-0.27
1430880.556,-0.255
1430883.333,-0.26
1430886.111,-0.245
1430888.889,-0.25
1430891.667,-0.26
1430894.444,-0.25
1430897.222,-0.245
1430900,-0.245
1430902.778,-0.24
1430905.556,-0.24
1430908.333,-0.24
1430911.111,-0.245
1430913.889,-0.23
1430916.667,-0.225
1430919.444,-0.215
1430922.222,-0.21
1430925,-0.22
1430927.778,-0.21
1430930.556,-0.2
1430933.333,-0.19
1430936.111,-0.18
1430938.889,-0.19
1430941.667,-0.2
1430944.444,-0.175
1430947.222,-0.165
1430950,-0.15
1430952.778,-0.155
1430955.556,-0.145
1430958.333,-0.15
1430961.111,-0.13
1430963.889,-0.125
1430966.667,-0.105
1430969.444,-0.105
1430972.222,-0.095
1430975,-0.1
1430977.778,-0.08
1430980.556,-0.065
1430983.333,-0.06
1430986.111,-0.065
1430988.889,-0.06
1430991.667,-0.07
1430994.444,-0.055
1430997.222,-0.04
1431000,-0.03
1431002.778,-0.03
1431005.556,-0.025
1431008.333,-0.03
1431011.111,-0.015
1431013.889,-0.005
1431016.667,0
1431019.444,0
1431022.222,-0.02
1431025,-0.035
1431027.778,-0.04
1431030.556,-0.045
1431033.333,-0.045
1431036.111,-0.055
1431038.889,-0.065
1431041.667,-0.095
1431044.444,-0.11
1431047.222,-0.115
1431050,-0.125
1431052.778,-0.14
1431055.556,-0.165
1431058.333,-0.18
1431061.111,-0.185
1431063.889,-0.185
1431066.667,-0.195
1431069.444,-0.22
1431072.222,-0.235
1431075,-0.245
1431077.778,-0.25
1431080.556,-0.245
1431083.333,-0.245
1431086.111,-0.255
1431088.889,-0.265
1431091.667,-0.27
1431094.444,-0.265
1431097.222,-0.265
1431100,-0.265
1431102.778,-0.27
1431105.556,-0.285
1431108.333,-0.29
1431111.111,-0.28
1431113.889,-0.27
1431116.667,-0.27
1431119.444,-0.275
1431122.222,-0.275
1431125,-0.29
1431127.778,-0.285
1431130.556,-0.285
1431133.333,-0.29
1431136.111,-0.28
1431138.889,-0.29
1431141.667,-0.305
1431144.444,-0.295
1431147.222,-0.28
1431150,-0.28
1431152.778,-0.29
1431155.556,-0.295
1431158.333,-0.3
1431161.111,-0.285
1431163.889,-0.295
1431166.667,-0.28
1431169.444,-0.28
1431172.222,-0.29
1431175,-0.305
1431177.778,-0.3
1431180.556,-0.29
1431183.333,-0.29
1431186.111,-0.285
1431188.889,-0.295
1431191.667,-0.305
1431194.444,-0.3
1431197.222,-0.285
1431200,-0.28
1431202.778,-0.28
1431205.556,-0.295
1431208.333,-0.3
1431211.111,-0.29
1431213.889,-0.28
1431216.667,-0.28
1431219.444,-0.285
1431222.222,-0.295
1431225,-0.3
1431227.778,-0.285
1431230.556,-0.285
1431233.333,-0.27
1431236.111,-0.28
1431238.889,-0.285
1431241.667,-0.31
1431244.444,-0.305
1431247.222,-0.295
1431250,-0.29
1431252.778,-0.285
1431255.556,-0.29
1431258.333,-0.31
1431261.111,-0.31
1431263.889,-0.3
1431266.667,-0.295
1431269.444,-0.305
1431272.222,-0.315
1431275,-0.315
1431277.778,-0.31
1431280.556,-0.31
1431283.333,-0.29
1431286.111,-0.295
1431288.889,-0.305
1431291.667,-0.32
1431294.444,-0.31
1431297.222,-0.315
1431300,-0.305
1431302.778,-0.3
1431305.556,-0.3
1431308.333,-0.315
1431311.111,-0.315
1431313.889,-0.32
1431316.667,-0.31
1431319.444,-0.31
1431322.222,-0.31
1431325,-0.325
1431327.778,-0.325
1431330.556,-0.325
1431333.333,-0.315
1431336.111,-0.31
1431338.889,-0.32
1431341.667,-0.325
1431344.444,-0.315
1431347.222,-0.31
1431350,-0.305
1431352.778,-0.305
1431355.556,-0.32
1431358.333,-0.325
1431361.111,-0.325
1431363.889,-0.315
1431366.667,-0.305
1431369.444,-0.315
1431372.222,-0.32
1431375,-0.33
1431377.778,-0.33
1431380.556,-0.32
1431383.333,-0.32
1431386.111,-0.325
1431388.889,-0.325
1431391.667,-0.34
1431394.444,-0.33
1431397.222,-0.32
1431400,-0.315
1431402.778,-0.32
1431405.556,-0.335
1431408.333,-0.335
1431411.111,-0.33
1431413.889,-0.32
1431416.667,-0.325
1431419.444,-0.325
1431422.222,-0.325
1431425,-0.335
1431427.778,-0.34
1431430.556,-0.33
1431433.333,-0.325
1431436.111,-0.32
1431438.889,-0.33
1431441.667,-0.335
1431444.444,-0.33
1431447.222,-0.32
1431450,-0.32
1431452.778,-0.32
1431455.556,-0.33
1431458.333,-0.345
1431461.111,-0.335
1431463.889,-0.33
1431466.667,-0.33
1431469.444,-0.325
1431472.222,-0.335
1431475,-0.345
1431477.778,-0.34
1431480.556,-0.325
1431483.333,-0.315
1431486.111,-0.315
1431488.889,-0.32
1431491.667,-0.33
1431494.444,-0.335
1431497.222,-0.32
1431500,-0.31
1431502.778,-0.315
1431505.556,-0.325
1431508.333,-0.325
1431511.111,-0.32
1431513.889,-0.335
1431516.667,-0.31
1431519.444,-0.31
1431522.222,-0.315
1431525,-0.33
1431527.778,-0.33
1431530.556,-0.325
1431533.333,-0.315
1431536.111,-0.315
1431538.889,-0.335
1431541.667,-0.335
1431544.444,-0.33
1431547.222,-0.325
1431550,-0.315
1431552.778,-0.315
1431555.556,-0.32
1431558.333,-0.33
1431561.111,-0.33
1431563.889,-0.32
1431566.667,-0.325
1431569.444,-0.31
1431572.222,-0.31
1431575,-0.325
1431577.778,-0.32
1431580.556,-0.315
1431583.333,-0.31
1431586.111,-0.31
1431588.889,-0.315
1431591.667,-0.32
1431594.444,-0.33
1431597.222,-0.325
1431600,-0.315
1431602.778,-0.32
1431605.556,-0.32
1431608.333,-0.325
1431611.111,-0.32
1431613.889,-0.32
1431616.667,-0.31
1431619.444,-0.315
1431622.222,-0.31
1431625,-0.315
1431627.778,-0.32
1431630.556,-0.305
1431633.333,-0.32
1431636.111,-0.31
1431638.889,-0.315
1431641.667,-0.32
1431644.444,-0.325
1431647.222,-0.315
1431650,-0.305
1431652.778,-0.305
1431655.556,-0.31
1431658.333,-0.315
1431661.111,-0.32
1431663.889,-0.315
1431666.667,-0.3
1431669.444,-0.31
1431672.222,-0.3
1431675,-0.3
1431677.778,-0.31
1431680.556,-0.29
1431683.333,-0.3
1431686.111,-0.295
1431688.889,-0.3
1431691.667,-0.31
1431694.444,-0.3
1431697.222,-0.295
1431700,-0.295
1431702.778,-0.29
1431705.556,-0.295
1431708.333,-0.295
1431711.111,-0.285
1431713.889,-0.275
1431716.667,-0.265
1431719.444,-0.27
1431722.222,-0.26
1431725,-0.255
1431727.778,-0.245
1431730.556,-0.23
1431733.333,-0.225
1431736.111,-0.23
1431738.889,-0.225
1431741.667,-0.215
1431744.444,-0.21
1431747.222,-0.19
1431750,-0.19
1431752.778,-0.185
1431755.556,-0.2
1431758.333,-0.2
1431761.111,-0.185
1431763.889,-0.16
1431766.667,-0.165
1431769.444,-0.165
1431772.222,-0.18
1431775,-0.195
1431777.778,-0.195
1431780.556,-0.2
1431783.333,-0.205
1431786.111,-0.205
1431788.889,-0.22
1431791.667,-0.23
1431794.444,-0.215
1431797.222,-0.215
1431800,-0.225
1431802.778,-0.23
1431805.556,-0.25
1431808.333,-0.275
1431811.111,-0.28
1431813.889,-0.275
1431816.667,-0.27
1431819.444,-0.275
1431822.222,-0.275
1431825,-0.295
1431827.778,-0.305
1431830.556,-0.295
1431833.333,-0.3
1431836.111,-0.285
1431838.889,-0.295
1431841.667,-0.31
1431844.444,-0.285
1431847.222,-0.29
1431850,-0.28
1431852.778,-0.29
1431855.556,-0.295
1431858.333,-0.285
1431861.111,-0.28
1431863.889,-0.275
1431866.667,-0.28
1431869.444,-0.275
1431872.222,-0.28
1431875,-0.29
1431877.778,-0.28
1431880.556,-0.28
1431883.333,-0.285
1431886.111,-0.275
1431888.889,-0.275
1431891.667,-0.29
1431894.444,-0.27
1431897.222,-0.265
1431900,-0.26
1431902.778,-0.245
1431905.556,-0.235
1431908.333,-0.22
1431911.111,-0.2
1431913.889,-0.185
1431916.667,-0.165
1431919.444,-0.12
1431922.222,-0.05
1431925,0.035
1431927.778,0.15
1431930.556,0.26
1431933.333,0.39
1431936.111,0.505
1431938.889,0.6
1431941.667,0.69
1431944.444,0.81
1431947.222,0.87
1431950,0.835
1431952.778,0.695
1431955.556,0.485
1431958.333,0.26
1431961.111,0.05
1431963.889,-0.085
1431966.667,-0.185
1431969.444,-0.26
1431972.222,-0.3
1431975,-0.285
1431977.778,-0.23
1431980.556,-0.2
1431983.333,-0.2
1431986.111,-0.205
1431988.889,-0.235
1431991.667,-0.255
1431994.444,-0.26
1431997.222,-0.265
1432000,-0.255
1432002.778,-0.27
1432005.556,-0.265
1432008.333,-0.28
1432011.111,-0.285
1432013.889,-0.27
1432016.667,-0.275
1432019.444,-0.28
1432022.222,-0.28
1432025,-0.295
1432027.778,-0.285
1432030.556,-0.275
1432033.333,-0.265
1432036.111,-0.275
1432038.889,-0.28
1432041.667,-0.285
1432044.444,-0.29
1432047.222,-0.285
1432050,-0.265
1432052.778,-0.275
1432055.556,-0.27
1432058.333,-0.28
1432061.111,-0.27
1432063.889,-0.27
1432066.667,-0.265
1432069.444,-0.26
1432072.222,-0.255
1432075,-0.275
1432077.778,-0.27
1432080.556,-0.25
1432083.333,-0.25
1432086.111,-0.245
1432088.889,-0.255
1432091.667,-0.255
1432094.444,-0.255
1432097.222,-0.245
1432100,-0.235
1432102.778,-0.23
1432105.556,-0.24
1432108.333,-0.235
1432111.111,-0.24
1432113.889,-0.22
1432116.667,-0.205
1432119.444,-0.2
1432122.222,-0.205
1432125,-0.205
1432127.778,-0.21
1432130.556,-0.195
1432133.333,-0.195
1432136.111,-0.18
1432138.889,-0.18
1432141.667,-0.185
1432144.444,-0.17
1432147.222,-0.16
1432150,-0.145
1432152.778,-0.14
1432155.556,-0.14
1432158.333,-0.15
1432161.111,-0.135
1432163.889,-0.125
1432166.667,-0.12
1432169.444,-0.105
1432172.222,-0.095
1432175,-0.095
1432177.778,-0.095
1432180.556,-0.075
1432183.333,-0.06
1432186.111,-0.055
1432188.889,-0.065
1432191.667,-0.065
1432194.444,-0.055
1432197.222,-0.03
1432200,-0.01
1432202.778,-0.01
1432205.556,-0.01
1432208.333,-0.02
1432211.111,-0.01
1432213.889,0.01
1432216.667,0.015
1432219.444,0.015
1432222.222,0.015
1432225,0.01
1432227.778,0.015
1432230.556,0.015
1432233.333,0.02
1432236.111,0.015
1432238.889,-0.005
1432241.667,-0.015
1432244.444,-0.025
1432247.222,-0.02
1432250,-0.025
1432252.778,-0.045
1432255.556,-0.06
1432258.333,-0.085
1432261.111,-0.1
1432263.889,-0.11
1432266.667,-0.11
1432269.444,-0.125
1432272.222,-0.135
1432275,-0.16
1432277.778,-0.16
1432280.556,-0.165
1432283.333,-0.17
1432286.111,-0.18
1432288.889,-0.19
1432291.667,-0.2
1432294.444,-0.21
1432297.222,-0.215
1432300,-0.22
1432302.778,-0.215
1432305.556,-0.22
1432308.333,-0.23
1432311.111,-0.22
1432313.889,-0.22
1432316.667,-0.215
1432319.444,-0.225
1432322.222,-0.23
1432325,-0.24
1432327.778,-0.23
1432330.556,-0.23
1432333.333,-0.235
1432336.111,-0.225
1432338.889,-0.24
1432341.667,-0.24
1432344.444,-0.235
1432347.222,-0.23
1432350,-0.23
1432352.778,-0.23
1432355.556,-0.235
1432358.333,-0.245
1432361.111,-0.235
1432363.889,-0.235
1432366.667,-0.235
1432369.444,-0.24
1432372.222,-0.24
1432375,-0.25
1432377.778,-0.25
1432380.556,-0.235
1432383.333,-0.235
1432386.111,-0.23
1432388.889,-0.25
1432391.667,-0.25
1432394.444,-0.24
1432397.222,-0.235
1432400,-0.23
1432402.778,-0.23
1432405.556,-0.235
1432408.333,-0.245
1432411.111,-0.24
1432413.889,-0.23
1432416.667,-0.23
1432419.444,-0.24
1432422.222,-0.245
1432425,-0.255
1432427.778,-0.245
1432430.556,-0.24
1432433.333,-0.24
1432436.111,-0.25
1432438.889,-0.255
1432441.667,-0.25
1432444.444,-0.25
1432447.222,-0.245
1432450,-0.24
1432452.778,-0.25
1432455.556,-0.255
1432458.333,-0.26
1432461.111,-0.26
1432463.889,-0.245
1432466.667,-0.24
1432469.444,-0.245
1432472.222,-0.255
1432475,-0.265
1432477.778,-0.25
1432480.556,-0.245
1432483.333,-0.23
1432486.111,-0.25
1432488.889,-0.26
1432491.667,-0.27
1432494.444,-0.26
1432497.222,-0.25
1432500,-0.245
1432502.778,-0.245
1432505.556,-0.25
1432508.333,-0.265
1432511.111,-0.265
1432513.889,-0.25
1432516.667,-0.245
1432519.444,-0.255
1432522.222,-0.255
1432525,-0.27
1432527.778,-0.27
1432530.556,-0.255
1432533.333,-0.24
1432536.111,-0.26
1432538.889,-0.275
1432541.667,-0.285
1432544.444,-0.27
1432547.222,-0.255
1432550,-0.255
1432552.778,-0.255
1432555.556,-0.26
1432558.333,-0.26
1432561.111,-0.275
1432563.889,-0.255
1432566.667,-0.245
1432569.444,-0.245
1432572.222,-0.265
1432575,-0.265
1432577.778,-0.265
1432580.556,-0.26
1432583.333,-0.25
1432586.111,-0.25
1432588.889,-0.275
1432591.667,-0.275
1432594.444,-0.26
1432597.222,-0.26
1432600,-0.255
1432602.778,-0.255
1432605.556,-0.265
1432608.333,-0.275
1432611.111,-0.275
1432613.889,-0.255
1432616.667,-0.25
1432619.444,-0.25
1432622.222,-0.27
1432625,-0.27
1432627.778,-0.26
1432630.556,-0.27
1432633.333,-0.26
1432636.111,-0.265
1432638.889,-0.265
1432641.667,-0.275
1432644.444,-0.27
1432647.222,-0.26
1432650,-0.255
1432652.778,-0.255
1432655.556,-0.27
1432658.333,-0.28
1432661.111,-0.26
1432663.889,-0.26
1432666.667,-0.255
1432669.444,-0.265
1432672.222,-0.265
1432675,-0.27
1432677.778,-0.26
1432680.556,-0.255
1432683.333,-0.26
1432686.111,-0.265
1432688.889,-0.265
1432691.667,-0.28
1432694.444,-0.28
1432697.222,-0.26
1432700,-0.27
1432702.778,-0.27
1432705.556,-0.27
1432708.333,-0.27
1432711.111,-0.265
1432713.889,-0.27
1432716.667,-0.255
1432719.444,-0.26
1432722.222,-0.26
1432725,-0.26
1432727.778,-0.265
1432730.556,-0.26
1432733.333,-0.26
1432736.111,-0.26
1432738.889,-0.27
1432741.667,-0.27
1432744.444,-0.265
1432747.222,-0.265
1432750,-0.26
1432752.778,-0.265
1432755.556,-0.265
1432758.333,-0.28
1432761.111,-0.27
1432763.889,-0.26
1432766.667,-0.265
1432769.444,-0.26
1432772.222,-0.265
1432775,-0.265
1432777.778,-0.255
1432780.556,-0.265
1432783.333,-0.26
1432786.111,-0.255
1432788.889,-0.26
1432791.667,-0.27
1432794.444,-0.27
1432797.222,-0.26
1432800,-0.25
1432802.778,-0.25
1432805.556,-0.255
1432808.333,-0.26
1432811.111,-0.265
1432813.889,-0.255
1432816.667,-0.24
1432819.444,-0.25
1432822.222,-0.255
1432825,-0.27
1432827.778,-0.26
1432830.556,-0.26
1432833.333,-0.245
1432836.111,-0.25
1432838.889,-0.265
1432841.667,-0.26
1432844.444,-0.255
1432847.222,-0.25
1432850,-0.24
1432852.778,-0.24
1432855.556,-0.245
1432858.333,-0.25
1432861.111,-0.245
1432863.889,-0.225
1432866.667,-0.21
1432869.444,-0.215
1432872.222,-0.21
1432875,-0.205
1432877.778,-0.195
1432880.556,-0.18
1432883.333,-0.17
1432886.111,-0.165
1432888.889,-0.165
1432891.667,-0.165
1432894.444,-0.16
1432897.222,-0.14
1432900,-0.13
1432902.778,-0.135
1432905.556,-0.155
1432908.333,-0.155
1432911.111,-0.13
1432913.889,-0.12
1432916.667,-0.115
1432919.444,-0.13
1432922.222,-0.15
1432925,-0.165
1432927.778,-0.175
1432930.556,-0.165
1432933.333,-0.165
1432936.111,-0.185
1432938.889,-0.18
1432941.667,-0.19
1432944.444,-0.195
1432947.222,-0.2
1432950,-0.2
1432952.778,-0.22
1432955.556,-0.245
1432958.333,-0.26
1432961.111,-0.26
1432963.889,-0.25
1432966.667,-0.25
1432969.444,-0.26
1432972.222,-0.27
1432975,-0.27
1432977.778,-0.275
1432980.556,-0.265
1432983.333,-0.255
1432986.111,-0.265
1432988.889,-0.27
1432991.667,-0.27
1432994.444,-0.27
1432997.222,-0.27
1433000,-0.26
1433002.778,-0.28
1433005.556,-0.28
1433008.333,-0.28
1433011.111,-0.28
1433013.889,-0.27
1433016.667,-0.25
1433019.444,-0.255
1433022.222,-0.265
1433025,-0.275
1433027.778,-0.28
1433030.556,-0.265
1433033.333,-0.265
1433036.111,-0.265
1433038.889,-0.27
1433041.667,-0.285
1433044.444,-0.26
1433047.222,-0.255
1433050,-0.245
1433052.778,-0.24
1433055.556,-0.23
1433058.333,-0.22
1433061.111,-0.2
1433063.889,-0.18
1433066.667,-0.155
1433069.444,-0.13
1433072.222,-0.06
1433075,0.015
1433077.778,0.135
1433080.556,0.235
1433083.333,0.35
1433086.111,0.475
1433088.889,0.565
1433091.667,0.635
1433094.444,0.745
1433097.222,0.83
1433100,0.83
1433102.778,0.72
1433105.556,0.55
1433108.333,0.345
1433111.111,0.14
1433113.889,-0.025
1433116.667,-0.135
1433119.444,-0.23
1433122.222,-0.28
1433125,-0.295
1433127.778,-0.25
1433130.556,-0.22
1433133.333,-0.2
1433136.111,-0.21
1433138.889,-0.235
1433141.667,-0.26
1433144.444,-0.25
1433147.222,-0.26
1433150,-0.26
1433152.778,-0.26
1433155.556,-0.275
1433158.333,-0.295
1433161.111,-0.295
1433163.889,-0.28
1433166.667,-0.29
1433169.444,-0.295
1433172.222,-0.295
1433175,-0.305
1433177.778,-0.295
1433180.556,-0.29
1433183.333,-0.275
1433186.111,-0.285
1433188.889,-0.295
1433191.667,-0.305
1433194.444,-0.295
1433197.222,-0.28
1433200,-0.28
1433202.778,-0.285
1433205.556,-0.3
1433208.333,-0.29
1433211.111,-0.285
1433213.889,-0.275
1433216.667,-0.27
1433219.444,-0.275
1433222.222,-0.28
1433225,-0.285
1433227.778,-0.275
1433230.556,-0.265
1433233.333,-0.255
1433236.111,-0.25
1433238.889,-0.265
1433241.667,-0.275
1433244.444,-0.265
1433247.222,-0.255
1433250,-0.24
1433252.778,-0.245
1433255.556,-0.25
1433258.333,-0.25
1433261.111,-0.24
1433263.889,-0.24
1433266.667,-0.23
1433269.444,-0.23
1433272.222,-0.23
1433275,-0.24
1433277.778,-0.23
1433280.556,-0.21
1433283.333,-0.205
1433286.111,-0.21
1433288.889,-0.205
1433291.667,-0.21
1433294.444,-0.2
1433297.222,-0.2
1433300,-0.18
1433302.778,-0.19
1433305.556,-0.185
1433308.333,-0.19
1433311.111,-0.17
1433313.889,-0.155
1433316.667,-0.145
1433319.444,-0.135
1433322.222,-0.14
1433325,-0.135
1433327.778,-0.12
1433330.556,-0.11
1433333.333,-0.095
1433336.111,-0.09
1433338.889,-0.095
1433341.667,-0.095
1433344.444,-0.07
1433347.222,-0.055
1433350,-0.045
1433352.778,-0.04
1433355.556,-0.045
1433358.333,-0.04
1433361.111,-0.02
1433363.889,-0.02
1433366.667,-0.015
1433369.444,0
1433372.222,-0.015
1433375,-0.01
1433377.778,0
1433380.556,0.01
1433383.333,0.01
1433386.111,-0.01
1433388.889,-0.02
1433391.667,-0.035
1433394.444,-0.035
1433397.222,-0.035
1433400,-0.05
1433402.778,-0.065
1433405.556,-0.09
1433408.333,-0.11
1433411.111,-0.125
1433413.889,-0.125
1433416.667,-0.135
1433419.444,-0.145
1433422.222,-0.17
1433425,-0.195
1433427.778,-0.19
1433430.556,-0.2
1433433.333,-0.215
1433436.111,-0.22
1433438.889,-0.235
1433441.667,-0.25
1433444.444,-0.235
1433447.222,-0.245
1433450,-0.245
1433452.778,-0.25
1433455.556,-0.255
1433458.333,-0.265
1433461.111,-0.265
1433463.889,-0.26
1433466.667,-0.255
1433469.444,-0.265
1433472.222,-0.275
1433475,-0.275
1433477.778,-0.275
1433480.556,-0.265
1433483.333,-0.265
1433486.111,-0.27
1433488.889,-0.27
1433491.667,-0.27
1433494.444,-0.275
1433497.222,-0.265
1433500,-0.265
1433502.778,-0.265
1433505.556,-0.275
1433508.333,-0.29
1433511.111,-0.27
1433513.889,-0.27
1433516.667,-0.265
1433519.444,-0.26
1433522.222,-0.26
1433525,-0.27
1433527.778,-0.265
1433530.556,-0.265
1433533.333,-0.27
1433536.111,-0.27
1433538.889,-0.26
1433541.667,-0.265
1433544.444,-0.27
1433547.222,-0.27
1433550,-0.255
1433552.778,-0.25
1433555.556,-0.27
1433558.333,-0.285
1433561.111,-0.275
1433563.889,-0.275
1433566.667,-0.265
1433569.444,-0.265
1433572.222,-0.275
1433575,-0.285
1433577.778,-0.27
1433580.556,-0.27
1433583.333,-0.255
1433586.111,-0.27
1433588.889,-0.27
1433591.667,-0.285
1433594.444,-0.275
1433597.222,-0.275
1433600,-0.27
1433602.778,-0.27
1433605.556,-0.28
1433608.333,-0.29
1433611.111,-0.29
1433613.889,-0.28
1433616.667,-0.275
1433619.444,-0.285
1433622.222,-0.285
1433625,-0.3
1433627.778,-0.3
1433630.556,-0.29
1433633.333,-0.29
1433636.111,-0.29
1433638.889,-0.3
1433641.667,-0.305
1433644.444,-0.305
1433647.222,-0.285
1433650,-0.285
1433652.778,-0.305
1433655.556,-0.31
1433658.333,-0.3
1433661.111,-0.305
1433663.889,-0.3
1433666.667,-0.3
1433669.444,-0.31
1433672.222,-0.31
1433675,-0.315
1433677.778,-0.305
1433680.556,-0.305
1433683.333,-0.295
1433686.111,-0.305
1433688.889,-0.31
1433691.667,-0.31
1433694.444,-0.31
1433697.222,-0.305
1433700,-0.305
1433702.778,-0.305
1433705.556,-0.305
1433708.333,-0.305
1433711.111,-0.31
1433713.889,-0.305
1433716.667,-0.315
1433719.444,-0.305
1433722.222,-0.31
1433725,-0.32
1433727.778,-0.315
1433730.556,-0.315
1433733.333,-0.31
1433736.111,-0.3
1433738.889,-0.31
1433741.667,-0.315
1433744.444,-0.315
1433747.222,-0.305
1433750,-0.3
1433752.778,-0.3
1433755.556,-0.32
1433758.333,-0.33
1433761.111,-0.32
1433763.889,-0.32
1433766.667,-0.31
1433769.444,-0.315
1433772.222,-0.32
1433775,-0.325
1433777.778,-0.32
1433780.556,-0.315
1433783.333,-0.3
1433786.111,-0.31
1433788.889,-0.31
1433791.667,-0.33
1433794.444,-0.32
1433797.222,-0.32
1433800,-0.31
1433802.778,-0.305
1433805.556,-0.315
1433808.333,-0.33
1433811.111,-0.325
1433813.889,-0.315
1433816.667,-0.305
1433819.444,-0.305
1433822.222,-0.315
1433825,-0.32
1433827.778,-0.32
1433830.556,-0.31
1433833.333,-0.295
1433836.111,-0.305
1433838.889,-0.315
1433841.667,-0.33
1433844.444,-0.325
1433847.222,-0.3
1433850,-0.295
1433852.778,-0.305
1433855.556,-0.31
1433858.333,-0.31
1433861.111,-0.31
1433863.889,-0.305
1433866.667,-0.29
1433869.444,-0.3
1433872.222,-0.315
1433875,-0.315
1433877.778,-0.3
1433880.556,-0.295
1433883.333,-0.29
1433886.111,-0.295
1433888.889,-0.305
1433891.667,-0.305
1433894.444,-0.295
1433897.222,-0.29
1433900,-0.29
1433902.778,-0.29
1433905.556,-0.305
1433908.333,-0.31
1433911.111,-0.305
1433913.889,-0.3
1433916.667,-0.285
1433919.444,-0.305
1433922.222,-0.305
1433925,-0.305
1433927.778,-0.3
1433930.556,-0.295
1433933.333,-0.28
1433936.111,-0.285
1433938.889,-0.3
1433941.667,-0.305
1433944.444,-0.3
1433947.222,-0.285
1433950,-0.28
1433952.778,-0.295
1433955.556,-0.3
1433958.333,-0.295
1433961.111,-0.3
1433963.889,-0.29
1433966.667,-0.28
1433969.444,-0.28
1433972.222,-0.285
1433975,-0.3
1433977.778,-0.29
1433980.556,-0.28
1433983.333,-0.275
1433986.111,-0.28
1433988.889,-0.29
1433991.667,-0.295
1433994.444,-0.29
1433997.222,-0.275
1434000,-0.265
1434002.778,-0.27
1434005.556,-0.27
1434008.333,-0.275
1434011.111,-0.245
1434013.889,-0.245
1434016.667,-0.225
1434019.444,-0.22
1434022.222,-0.22
1434025,-0.225
1434027.778,-0.205
1434030.556,-0.205
1434033.333,-0.18
1434036.111,-0.18
1434038.889,-0.18
1434041.667,-0.185
1434044.444,-0.185
1434047.222,-0.17
1434050,-0.165
1434052.778,-0.16
1434055.556,-0.155
1434058.333,-0.165
1434061.111,-0.17
1434063.889,-0.17
1434066.667,-0.18
1434069.444,-0.195
1434072.222,-0.2
1434075,-0.21
1434077.778,-0.205
1434080.556,-0.21
1434083.333,-0.215
1434086.111,-0.225
1434088.889,-0.245
1434091.667,-0.25
1434094.444,-0.245
1434097.222,-0.25
1434100,-0.26
1434102.778,-0.27
1434105.556,-0.285
1434108.333,-0.285
1434111.111,-0.275
1434113.889,-0.265
1434116.667,-0.27
1434119.444,-0.275
1434122.222,-0.28
1434125,-0.29
1434127.778,-0.28
1434130.556,-0.27
1434133.333,-0.27
1434136.111,-0.285
1434138.889,-0.29
1434141.667,-0.29
1434144.444,-0.285
1434147.222,-0.28
1434150,-0.275
1434152.778,-0.27
1434155.556,-0.275
1434158.333,-0.285
1434161.111,-0.275
1434163.889,-0.275
1434166.667,-0.275
1434169.444,-0.275
1434172.222,-0.28
1434175,-0.28
1434177.778,-0.28
1434180.556,-0.27
1434183.333,-0.255
1434186.111,-0.265
1434188.889,-0.265
1434191.667,-0.26
1434194.444,-0.25
1434197.222,-0.22
1434200,-0.21
1434202.778,-0.2
1434205.556,-0.2
1434208.333,-0.185
1434211.111,-0.125
1434213.889,-0.02
1434216.667,0.08
1434219.444,0.18
1434222.222,0.285
1434225,0.39
1434227.778,0.51
1434230.556,0.625
1434233.333,0.73
1434236.111,0.82
1434238.889,0.85
1434241.667,0.775
1434244.444,0.62
1434247.222,0.41
1434250,0.2
1434252.778,0.015
1434255.556,-0.125
1434258.333,-0.22
1434261.111,-0.275
1434263.889,-0.29
1434266.667,-0.26
1434269.444,-0.22
1434272.222,-0.2
1434275,-0.205
1434277.778,-0.21
1434280.556,-0.23
1434283.333,-0.235
1434286.111,-0.235
1434288.889,-0.26
1434291.667,-0.26
1434294.444,-0.265
1434297.222,-0.26
1434300,-0.265
1434302.778,-0.275
1434305.556,-0.27
1434308.333,-0.28
1434311.111,-0.275
1434313.889,-0.26
1434316.667,-0.265
1434319.444,-0.26
1434322.222,-0.26
1434325,-0.275
1434327.778,-0.27
1434330.556,-0.265
1434333.333,-0.255
1434336.111,-0.255
1434338.889,-0.26
1434341.667,-0.27
1434344.444,-0.265
1434347.222,-0.255
1434350,-0.245
1434352.778,-0.24
1434355.556,-0.255
1434358.333,-0.255
1434361.111,-0.245
1434363.889,-0.24
1434366.667,-0.235
1434369.444,-0.235
1434372.222,-0.24
1434375,-0.245
1434377.778,-0.24
1434380.556,-0.23
1434383.333,-0.225
1434386.111,-0.225
1434388.889,-0.23
1434391.667,-0.23
1434394.444,-0.22
1434397.222,-0.215
1434400,-0.215
1434402.778,-0.21
1434405.556,-0.215
1434408.333,-0.215
1434411.111,-0.195
1434413.889,-0.2
1434416.667,-0.18
1434419.444,-0.18
1434422.222,-0.19
1434425,-0.18
1434427.778,-0.19
1434430.556,-0.17
1434433.333,-0.155
1434436.111,-0.16
1434438.889,-0.155
1434441.667,-0.155
1434444.444,-0.14
1434447.222,-0.12
1434450,-0.11
1434452.778,-0.095
1434455.556,-0.095
1434458.333,-0.105
1434461.111,-0.085
1434463.889,-0.075
1434466.667,-0.07
1434469.444,-0.065
1434472.222,-0.06
1434475,-0.055
1434477.778,-0.045
1434480.556,-0.025
1434483.333,-0.02
1434486.111,-0.01
1434488.889,-0.015
1434491.667,-0.005
1434494.444,-0.005
1434497.222,0.01
1434500,0.025
1434502.778,0.03
1434505.556,0.025
1434508.333,0.015
1434511.111,0.02
1434513.889,0.035
1434516.667,0.04
1434519.444,0.02
1434522.222,0.01
1434525,-0.005
1434527.778,-0.005
1434530.556,-0.005
1434533.333,-0.01
1434536.111,-0.03
1434538.889,-0.055
1434541.667,-0.08
1434544.444,-0.085
1434547.222,-0.09
1434550,-0.105
1434552.778,-0.11
1434555.556,-0.135
1434558.333,-0.15
1434561.111,-0.155
1434563.889,-0.165
1434566.667,-0.16
1434569.444,-0.175
1434572.222,-0.185
1434575,-0.2
1434577.778,-0.19
1434580.556,-0.19
1434583.333,-0.19
1434586.111,-0.195
1434588.889,-0.21
1434591.667,-0.22
1434594.444,-0.205
1434597.222,-0.205
1434600,-0.2
1434602.778,-0.21
1434605.556,-0.215
1434608.333,-0.22
1434611.111,-0.22
1434613.889,-0.205
1434616.667,-0.21
1434619.444,-0.215
1434622.222,-0.225
1434625,-0.225
1434627.778,-0.21
1434630.556,-0.205
1434633.333,-0.2
1434636.111,-0.205
1434638.889,-0.215
1434641.667,-0.215
1434644.444,-0.21
1434647.222,-0.205
1434650,-0.2
1434652.778,-0.2
1434655.556,-0.215
1434658.333,-0.22
1434661.111,-0.21
1434663.889,-0.205
1434666.667,-0.205
1434669.444,-0.21
1434672.222,-0.215
1434675,-0.21
1434677.778,-0.21
1434680.556,-0.2
1434683.333,-0.205
1434686.111,-0.21
1434688.889,-0.215
1434691.667,-0.22
1434694.444,-0.21
1434697.222,-0.21
1434700,-0.205
1434702.778,-0.21
1434705.556,-0.215
1434708.333,-0.215
1434711.111,-0.215
1434713.889,-0.21
1434716.667,-0.2
1434719.444,-0.205
1434722.222,-0.21
1434725,-0.215
1434727.778,-0.215
1434730.556,-0.22
1434733.333,-0.215
1434736.111,-0.215
1434738.889,-0.225
1434741.667,-0.21
1434744.444,-0.21
1434747.222,-0.205
1434750,-0.205
1434752.778,-0.21
1434755.556,-0.215
1434758.333,-0.225
1434761.111,-0.22
1434763.889,-0.215
1434766.667,-0.215
1434769.444,-0.215
1434772.222,-0.22
1434775,-0.23
1434777.778,-0.225
1434780.556,-0.225
1434783.333,-0.22
1434786.111,-0.22
1434788.889,-0.22
1434791.667,-0.235
1434794.444,-0.225
1434797.222,-0.225
1434800,-0.215
1434802.778,-0.22
1434805.556,-0.225
1434808.333,-0.235
1434811.111,-0.235
1434813.889,-0.23
1434816.667,-0.23
1434819.444,-0.225
1434822.222,-0.235
1434825,-0.24
1434827.778,-0.225
1434830.556,-0.23
1434833.333,-0.235
1434836.111,-0.23
1434838.889,-0.23
1434841.667,-0.23
1434844.444,-0.225
1434847.222,-0.22
1434850,-0.22
1434852.778,-0.22
1434855.556,-0.23
1434858.333,-0.235
1434861.111,-0.23
1434863.889,-0.225
1434866.667,-0.23
1434869.444,-0.225
1434872.222,-0.215
1434875,-0.235
1434877.778,-0.22
1434880.556,-0.215
1434883.333,-0.215
1434886.111,-0.22
1434888.889,-0.225
1434891.667,-0.225
1434894.444,-0.23
1434897.222,-0.22
1434900,-0.225
1434902.778,-0.225
1434905.556,-0.225
1434908.333,-0.24
1434911.111,-0.23
1434913.889,-0.22
1434916.667,-0.215
1434919.444,-0.21
1434922.222,-0.22
1434925,-0.23
1434927.778,-0.23
1434930.556,-0.215
1434933.333,-0.21
1434936.111,-0.215
1434938.889,-0.23
1434941.667,-0.235
1434944.444,-0.22
1434947.222,-0.21
1434950,-0.21
1434952.778,-0.215
1434955.556,-0.225
1434958.333,-0.225
1434961.111,-0.225
1434963.889,-0.22
1434966.667,-0.21
1434969.444,-0.22
1434972.222,-0.215
1434975,-0.23
1434977.778,-0.225
1434980.556,-0.22
1434983.333,-0.22
1434986.111,-0.215
1434988.889,-0.225
1434991.667,-0.23
1434994.444,-0.22
1434997.222,-0.215
1435000,-0.205
1435002.778,-0.205
1435005.556,-0.215
1435008.333,-0.225
1435011.111,-0.22
1435013.889,-0.21
1435016.667,-0.205
1435019.444,-0.21
1435022.222,-0.215
1435025,-0.235
1435027.778,-0.215
1435030.556,-0.215
1435033.333,-0.205
1435036.111,-0.2
1435038.889,-0.21
1435041.667,-0.22
1435044.444,-0.215
1435047.222,-0.215
1435050,-0.21
1435052.778,-0.205
1435055.556,-0.205
1435058.333,-0.22
1435061.111,-0.215
1435063.889,-0.205
1435066.667,-0.205
1435069.444,-0.195
1435072.222,-0.215
1435075,-0.235
1435077.778,-0.215
1435080.556,-0.215
1435083.333,-0.21
1435086.111,-0.2
1435088.889,-0.21
1435091.667,-0.215
1435094.444,-0.21
1435097.222,-0.21
1435100,-0.2
1435102.778,-0.185
1435105.556,-0.215
1435108.333,-0.22
1435111.111,-0.22
1435113.889,-0.2
1435116.667,-0.19
1435119.444,-0.195
1435122.222,-0.2
1435125,-0.22
1435127.778,-0.205
1435130.556,-0.2
1435133.333,-0.195
1435136.111,-0.19
1435138.889,-0.2
1435141.667,-0.205
1435144.444,-0.2
1435147.222,-0.19
1435150,-0.185
1435152.778,-0.185
1435155.556,-0.2
1435158.333,-0.185
1435161.111,-0.19
1435163.889,-0.19
1435166.667,-0.18
1435169.444,-0.17
1435172.222,-0.175
1435175,-0.16
1435177.778,-0.145
1435180.556,-0.13
1435183.333,-0.12
1435186.111,-0.12
1435188.889,-0.12
1435191.667,-0.12
1435194.444,-0.105
1435197.222,-0.095
1435200,-0.08
1435202.778,-0.09
1435205.556,-0.095
1435208.333,-0.1
1435211.111,-0.085
1435213.889,-0.07
1435216.667,-0.06
1435219.444,-0.075
1435222.222,-0.09
1435225,-0.11
1435227.778,-0.125
1435230.556,-0.12
1435233.333,-0.115
1435236.111,-0.12
1435238.889,-0.13
1435241.667,-0.15
1435244.444,-0.145
1435247.222,-0.14
1435250,-0.155
1435252.778,-0.17
1435255.556,-0.185
1435258.333,-0.205
1435261.111,-0.21
1435263.889,-0.21
1435266.667,-0.195
1435269.444,-0.21
1435272.222,-0.22
1435275,-0.23
1435277.778,-0.225
1435280.556,-0.22
1435283.333,-0.215
1435286.111,-0.22
1435288.889,-0.225
1435291.667,-0.23
1435294.444,-0.225
1435297.222,-0.22
1435300,-0.225
1435302.778,-0.22
1435305.556,-0.23
1435308.333,-0.24
1435311.111,-0.22
1435313.889,-0.22
1435316.667,-0.215
1435319.444,-0.22
1435322.222,-0.235
1435325,-0.225
1435327.778,-0.225
1435330.556,-0.215
1435333.333,-0.215
1435336.111,-0.21
1435338.889,-0.22
1435341.667,-0.22
1435344.444,-0.2
1435347.222,-0.195
1435350,-0.17
1435352.778,-0.16
1435355.556,-0.15
1435358.333,-0.145
1435361.111,-0.13
1435363.889,-0.085
1435366.667,-0.005
1435369.444,0.075
1435372.222,0.175
1435375,0.285
1435377.778,0.41
1435380.556,0.525
1435383.333,0.615
1435386.111,0.71
1435388.889,0.8
1435391.667,0.84
1435394.444,0.81
1435397.222,0.69
1435400,0.52
1435402.778,0.31
1435405.556,0.11
1435408.333,-0.045
1435411.111,-0.14
1435413.889,-0.205
1435416.667,-0.22
1435419.444,-0.205
1435422.222,-0.175
1435425,-0.155
1435427.778,-0.16
1435430.556,-0.155
1435433.333,-0.175
1435436.111,-0.195
1435438.889,-0.205
1435441.667,-0.21
1435444.444,-0.215
1435447.222,-0.215
1435450,-0.21
1435452.778,-0.225
1435455.556,-0.23
1435458.333,-0.23
1435461.111,-0.235
1435463.889,-0.22
1435466.667,-0.225
1435469.444,-0.22
1435472.222,-0.24
1435475,-0.235
1435477.778,-0.235
1435480.556,-0.235
1435483.333,-0.215
1435486.111,-0.225
1435488.889,-0.23
1435491.667,-0.24
1435494.444,-0.245
1435497.222,-0.225
1435500,-0.215
1435502.778,-0.225
1435505.556,-0.22
1435508.333,-0.23
1435511.111,-0.225
1435513.889,-0.21
1435516.667,-0.21
1435519.444,-0.2
1435522.222,-0.215
1435525,-0.23
1435527.778,-0.22
1435530.556,-0.205
1435533.333,-0.205
1435536.111,-0.205
1435538.889,-0.215
1435541.667,-0.215
1435544.444,-0.2
1435547.222,-0.2
1435550,-0.195
1435552.778,-0.185
1435555.556,-0.19
1435558.333,-0.19
1435561.111,-0.19
1435563.889,-0.17
1435566.667,-0.155
1435569.444,-0.16
1435572.222,-0.17
1435575,-0.165
1435577.778,-0.15
1435580.556,-0.155
1435583.333,-0.14
1435586.111,-0.14
1435588.889,-0.15
1435591.667,-0.13
1435594.444,-0.125
1435597.222,-0.115
1435600,-0.105
1435602.778,-0.1
1435605.556,-0.09
1435608.333,-0.105
1435611.111,-0.09
1435613.889,-0.085
1435616.667,-0.065
1435619.444,-0.06
1435622.222,-0.065
1435625,-0.055
1435627.778,-0.03
1435630.556,-0.02
1435633.333,-0.02
1435636.111,-0.015
1435638.889,-0.015
1435641.667,-0.015
1435644.444,-0.005
1435647.222,0.015
1435650,0.025
1435652.778,0.025
1435655.556,0.02
1435658.333,0.015
1435661.111,0.03
1435663.889,0.04
1435666.667,0.02
1435669.444,0.025
1435672.222,0.015
1435675,-0.005
1435677.778,-0.005
1435680.556,-0.025
1435683.333,-0.03
1435686.111,-0.055
1435688.889,-0.07
1435691.667,-0.08
1435694.444,-0.09
1435697.222,-0.095
1435700,-0.115
1435702.778,-0.13
1435705.556,-0.15
1435708.333,-0.16
1435711.111,-0.18
1435713.889,-0.185
1435716.667,-0.185
1435719.444,-0.185
1435722.222,-0.21
1435725,-0.22
1435727.778,-0.215
1435730.556,-0.205
1435733.333,-0.215
1435736.111,-0.23
1435738.889,-0.24
1435741.667,-0.24
1435744.444,-0.24
1435747.222,-0.225
1435750,-0.23
1435752.778,-0.24
1435755.556,-0.24
1435758.333,-0.25
1435761.111,-0.24
1435763.889,-0.235
1435766.667,-0.235
1435769.444,-0.24
1435772.222,-0.255
1435775,-0.27
1435777.778,-0.25
1435780.556,-0.24
1435783.333,-0.235
1435786.111,-0.245
1435788.889,-0.25
1435791.667,-0.255
1435794.444,-0.245
1435797.222,-0.25
1435800,-0.25
1435802.778,-0.24
1435805.556,-0.255
1435808.333,-0.255
1435811.111,-0.25
1435813.889,-0.235
1435816.667,-0.23
1435819.444,-0.24
1435822.222,-0.25
1435825,-0.255
1435827.778,-0.245
1435830.556,-0.245
1435833.333,-0.235
1435836.111,-0.24
1435838.889,-0.25
1435841.667,-0.255
1435844.444,-0.245
1435847.222,-0.245
1435850,-0.24
1435852.778,-0.25
1435855.556,-0.25
1435858.333,-0.26
1435861.111,-0.25
1435863.889,-0.245
1435866.667,-0.25
1435869.444,-0.255
1435872.222,-0.255
1435875,-0.27
1435877.778,-0.255
1435880.556,-0.24
1435883.333,-0.245
1435886.111,-0.25
1435888.889,-0.255
1435891.667,-0.255
1435894.444,-0.255
1435897.222,-0.25
1435900,-0.25
1435902.778,-0.255
1435905.556,-0.26
1435908.333,-0.27
1435911.111,-0.27
1435913.889,-0.255
1435916.667,-0.26
1435919.444,-0.26
1435922.222,-0.27
1435925,-0.265
1435927.778,-0.26
1435930.556,-0.26
1435933.333,-0.27
1435936.111,-0.265
1435938.889,-0.27
1435941.667,-0.275
1435944.444,-0.265
1435947.222,-0.26
1435950,-0.255
1435952.778,-0.26
1435955.556,-0.275
1435958.333,-0.27
1435961.111,-0.275
1435963.889,-0.27
1435966.667,-0.265
1435969.444,-0.275
1435972.222,-0.28
1435975,-0.285
1435977.778,-0.27
1435980.556,-0.275
1435983.333,-0.27
1435986.111,-0.285
1435988.889,-0.29
1435991.667,-0.295
1435994.444,-0.28
1435997.222,-0.27
1436000,-0.27
1436002.778,-0.28
1436005.556,-0.285
1436008.333,-0.3
1436011.111,-0.29
1436013.889,-0.28
1436016.667,-0.275
1436019.444,-0.29
1436022.222,-0.29
1436025,-0.305
1436027.778,-0.285
1436030.556,-0.275
1436033.333,-0.28
1436036.111,-0.285
1436038.889,-0.295
1436041.667,-0.305
1436044.444,-0.29
1436047.222,-0.295
1436050,-0.28
1436052.778,-0.29
1436055.556,-0.295
1436058.333,-0.3
1436061.111,-0.3
1436063.889,-0.29
1436066.667,-0.28
1436069.444,-0.28
1436072.222,-0.295
1436075,-0.29
1436077.778,-0.29
1436080.556,-0.28
1436083.333,-0.285
1436086.111,-0.285
1436088.889,-0.29
1436091.667,-0.295
1436094.444,-0.3
1436097.222,-0.29
1436100,-0.295
1436102.778,-0.29
1436105.556,-0.3
1436108.333,-0.3
1436111.111,-0.3
1436113.889,-0.295
1436116.667,-0.275
1436119.444,-0.285
1436122.222,-0.295
1436125,-0.3
1436127.778,-0.29
1436130.556,-0.29
1436133.333,-0.285
1436136.111,-0.285
1436138.889,-0.29
1436141.667,-0.3
1436144.444,-0.295
1436147.222,-0.275
1436150,-0.28
1436152.778,-0.285
1436155.556,-0.29
1436158.333,-0.3
1436161.111,-0.29
1436163.889,-0.28
1436166.667,-0.275
1436169.444,-0.285
1436172.222,-0.285
1436175,-0.3
1436177.778,-0.29
1436180.556,-0.28
1436183.333,-0.275
1436186.111,-0.285
1436188.889,-0.285
1436191.667,-0.29
1436194.444,-0.29
1436197.222,-0.275
1436200,-0.275
1436202.778,-0.28
1436205.556,-0.29
1436208.333,-0.3
1436211.111,-0.295
1436213.889,-0.29
1436216.667,-0.28
1436219.444,-0.285
1436222.222,-0.295
1436225,-0.295
1436227.778,-0.29
1436230.556,-0.28
1436233.333,-0.285
1436236.111,-0.28
1436238.889,-0.29
1436241.667,-0.305
1436244.444,-0.29
1436247.222,-0.27
1436250,-0.275
1436252.778,-0.27
1436255.556,-0.275
1436258.333,-0.285
1436261.111,-0.285
1436263.889,-0.275
1436266.667,-0.275
1436269.444,-0.285
1436272.222,-0.29
1436275,-0.3
1436277.778,-0.29
1436280.556,-0.275
1436283.333,-0.275
1436286.111,-0.285
1436288.889,-0.285
1436291.667,-0.285
1436294.444,-0.28
1436297.222,-0.28
1436300,-0.26
1436302.778,-0.275
1436305.556,-0.28
1436308.333,-0.285
1436311.111,-0.275
1436313.889,-0.27
1436316.667,-0.255
1436319.444,-0.265
1436322.222,-0.275
1436325,-0.28
1436327.778,-0.265
1436330.556,-0.26
1436333.333,-0.245
1436336.111,-0.24
1436338.889,-0.255
1436341.667,-0.26
1436344.444,-0.245
1436347.222,-0.23
1436350,-0.21
1436352.778,-0.205
1436355.556,-0.21
1436358.333,-0.2
1436361.111,-0.2
1436363.889,-0.18
1436366.667,-0.175
1436369.444,-0.17
1436372.222,-0.17
1436375,-0.17
1436377.778,-0.16
1436380.556,-0.145
1436383.333,-0.15
1436386.111,-0.155
1436388.889,-0.135
1436391.667,-0.135
1436394.444,-0.14
1436397.222,-0.135
1436400,-0.15
1436402.778,-0.155
1436405.556,-0.18
1436408.333,-0.18
1436411.111,-0.175
1436413.889,-0.17
1436416.667,-0.175
1436419.444,-0.19
1436422.222,-0.205
1436425,-0.215
1436427.778,-0.215
1436430.556,-0.225
1436433.333,-0.225
1436436.111,-0.235
1436438.889,-0.25
1436441.667,-0.26
1436444.444,-0.265
1436447.222,-0.265
1436450,-0.265
1436452.778,-0.265
1436455.556,-0.275
1436458.333,-0.28
1436461.111,-0.27
1436463.889,-0.27
1436466.667,-0.26
1436469.444,-0.26
1436472.222,-0.28
1436475,-0.27
1436477.778,-0.27
1436480.556,-0.255
1436483.333,-0.25
1436486.111,-0.26
1436488.889,-0.26
1436491.667,-0.26
1436494.444,-0.26
1436497.222,-0.25
1436500,-0.25
1436502.778,-0.255
1436505.556,-0.26
1436508.333,-0.255
1436511.111,-0.25
1436513.889,-0.24
1436516.667,-0.24
1436519.444,-0.23
1436522.222,-0.245
1436525,-0.24
1436527.778,-0.23
1436530.556,-0.21
1436533.333,-0.195
1436536.111,-0.17
1436538.889,-0.165
1436541.667,-0.17
1436544.444,-0.13
1436547.222,-0.05
1436550,0.05
1436552.778,0.145
1436555.556,0.24
1436558.333,0.365
1436561.111,0.485
1436563.889,0.585
1436566.667,0.675
1436569.444,0.775
1436572.222,0.85
1436575,0.89
1436577.778,0.83
1436580.556,0.695
1436583.333,0.5
1436586.111,0.275
1436588.889,0.085
1436591.667,-0.06
1436594.444,-0.16
1436597.222,-0.225
1436600,-0.26
1436602.778,-0.245
1436605.556,-0.225
1436608.333,-0.195
1436611.111,-0.175
1436613.889,-0.17
1436616.667,-0.185
1436619.444,-0.2
1436622.222,-0.22
1436625,-0.23
1436627.778,-0.23
1436630.556,-0.23
1436633.333,-0.23
1436636.111,-0.235
1436638.889,-0.245
1436641.667,-0.255
1436644.444,-0.245
1436647.222,-0.23
1436650,-0.24
1436652.778,-0.24
1436655.556,-0.245
1436658.333,-0.255
1436661.111,-0.25
1436663.889,-0.245
1436666.667,-0.235
1436669.444,-0.24
1436672.222,-0.245
1436675,-0.245
1436677.778,-0.235
1436680.556,-0.215
1436683.333,-0.215
1436686.111,-0.22
1436688.889,-0.23
1436691.667,-0.24
1436694.444,-0.225
1436697.222,-0.22
1436700,-0.215
1436702.778,-0.215
1436705.556,-0.225
1436708.333,-0.225
1436711.111,-0.22
1436713.889,-0.195
1436716.667,-0.19
1436719.444,-0.2
1436722.222,-0.205
1436725,-0.205
1436727.778,-0.19
1436730.556,-0.19
1436733.333,-0.18
1436736.111,-0.18
1436738.889,-0.19
1436741.667,-0.19
1436744.444,-0.17
1436747.222,-0.155
1436750,-0.15
1436752.778,-0.155
1436755.556,-0.16
1436758.333,-0.175
1436761.111,-0.155
1436763.889,-0.155
1436766.667,-0.135
1436769.444,-0.14
1436772.222,-0.13
1436775,-0.13
1436777.778,-0.125
1436780.556,-0.105
1436783.333,-0.1
1436786.111,-0.105
1436788.889,-0.095
1436791.667,-0.095
1436794.444,-0.085
1436797.222,-0.07
1436800,-0.055
1436802.778,-0.05
1436805.556,-0.065
1436808.333,-0.07
1436811.111,-0.05
1436813.889,-0.035
1436816.667,-0.025
1436819.444,-0.01
1436822.222,-0.01
1436825,-0.01
1436827.778,-0.005
1436830.556,0.015
1436833.333,0.03
1436836.111,0.03
1436838.889,0.025
1436841.667,0.025
1436844.444,0.035
1436847.222,0.055
1436850,0.065
1436852.778,0.055
1436855.556,0.055
1436858.333,0.05
1436861.111,0.06
1436863.889,0.06
1436866.667,0.07
1436869.444,0.06
1436872.222,0.035
1436875,0.02
1436877.778,0.015
1436880.556,0.015
1436883.333,0.015
1436886.111,-0.015
1436888.889,-0.045
1436891.667,-0.045
1436894.444,-0.06
1436897.222,-0.06
1436900,-0.075
1436902.778,-0.095
1436905.556,-0.1
1436908.333,-0.125
1436911.111,-0.125
1436913.889,-0.125
1436916.667,-0.13
1436919.444,-0.135
1436922.222,-0.16
1436925,-0.18
1436927.778,-0.16
1436930.556,-0.165
1436933.333,-0.155
1436936.111,-0.165
1436938.889,-0.175
1436941.667,-0.185
1436944.444,-0.185
1436947.222,-0.185
1436950,-0.175
1436952.778,-0.18
1436955.556,-0.185
1436958.333,-0.195
1436961.111,-0.185
1436963.889,-0.185
1436966.667,-0.175
1436969.444,-0.18
1436972.222,-0.185
1436975,-0.185
1436977.778,-0.19
1436980.556,-0.17
1436983.333,-0.17
1436986.111,-0.18
1436988.889,-0.185
1436991.667,-0.185
1436994.444,-0.18
1436997.222,-0.175
1437000,-0.175
1437002.778,-0.18
1437005.556,-0.185
1437008.333,-0.19
1437011.111,-0.18
1437013.889,-0.18
1437016.667,-0.18
1437019.444,-0.18
1437022.222,-0.185
1437025,-0.185
1437027.778,-0.185
1437030.556,-0.18
1437033.333,-0.165
1437036.111,-0.175
1437038.889,-0.18
1437041.667,-0.185
1437044.444,-0.18
1437047.222,-0.19
1437050,-0.185
1437052.778,-0.185
1437055.556,-0.19
1437058.333,-0.195
1437061.111,-0.19
1437063.889,-0.185
1437066.667,-0.18
1437069.444,-0.185
1437072.222,-0.2
1437075,-0.19
1437077.778,-0.175
1437080.556,-0.185
1437083.333,-0.175
1437086.111,-0.185
1437088.889,-0.185
1437091.667,-0.195
1437094.444,-0.19
1437097.222,-0.19
1437100,-0.19
1437102.778,-0.19
1437105.556,-0.19
1437108.333,-0.2
1437111.111,-0.19
1437113.889,-0.19
1437116.667,-0.185
1437119.444,-0.19
1437122.222,-0.2
1437125,-0.215
1437127.778,-0.2
1437130.556,-0.195
1437133.333,-0.195
1437136.111,-0.21
1437138.889,-0.215
1437141.667,-0.205
1437144.444,-0.2
1437147.222,-0.2
1437150,-0.195
1437152.778,-0.205
1437155.556,-0.2
1437158.333,-0.21
1437161.111,-0.205
1437163.889,-0.19
1437166.667,-0.2
1437169.444,-0.21
1437172.222,-0.215
1437175,-0.215
1437177.778,-0.21
1437180.556,-0.195
1437183.333,-0.195
1437186.111,-0.205
1437188.889,-0.21
1437191.667,-0.215
1437194.444,-0.21
1437197.222,-0.2
1437200,-0.2
1437202.778,-0.21
1437205.556,-0.215
1437208.333,-0.22
1437211.111,-0.215
1437213.889,-0.205
1437216.667,-0.205
1437219.444,-0.215
1437222.222,-0.23
1437225,-0.225
1437227.778,-0.215
1437230.556,-0.21
1437233.333,-0.21
1437236.111,-0.21
1437238.889,-0.22
1437241.667,-0.23
1437244.444,-0.22
1437247.222,-0.205
1437250,-0.205
1437252.778,-0.205
1437255.556,-0.21
1437258.333,-0.22
1437261.111,-0.215
1437263.889,-0.21
1437266.667,-0.205
1437269.444,-0.215
1437272.222,-0.215
1437275,-0.225
1437277.778,-0.21
1437280.556,-0.205
1437283.333,-0.2
1437286.111,-0.205
1437288.889,-0.215
1437291.667,-0.215
1437294.444,-0.2
1437297.222,-0.21
1437300,-0.215
1437302.778,-0.21
1437305.556,-0.22
1437308.333,-0.225
1437311.111,-0.225
1437313.889,-0.215
1437316.667,-0.205
1437319.444,-0.205
1437322.222,-0.22
1437325,-0.23
1437327.778,-0.22
1437330.556,-0.205
1437333.333,-0.205
1437336.111,-0.205
1437338.889,-0.22
1437341.667,-0.22
1437344.444,-0.22
1437347.222,-0.21
1437350,-0.205
1437352.778,-0.21
1437355.556,-0.215
1437358.333,-0.23
1437361.111,-0.22
1437363.889,-0.21
1437366.667,-0.2
1437369.444,-0.21
1437372.222,-0.22
1437375,-0.22
1437377.778,-0.21
1437380.556,-0.21
1437383.333,-0.2
1437386.111,-0.205
1437388.889,-0.21
1437391.667,-0.22
1437394.444,-0.205
1437397.222,-0.205
1437400,-0.205
1437402.778,-0.21
1437405.556,-0.215
1437408.333,-0.225
1437411.111,-0.225
1437413.889,-0.215
1437416.667,-0.22
1437419.444,-0.21
1437422.222,-0.22
1437425,-0.225
1437427.778,-0.215
1437430.556,-0.22
1437433.333,-0.21
1437436.111,-0.215
1437438.889,-0.215
1437441.667,-0.225
1437444.444,-0.215
1437447.222,-0.215
1437450,-0.205
1437452.778,-0.215
1437455.556,-0.225
1437458.333,-0.225
1437461.111,-0.21
1437463.889,-0.205
1437466.667,-0.215
1437469.444,-0.22
1437472.222,-0.215
1437475,-0.22
1437477.778,-0.205
1437480.556,-0.205
1437483.333,-0.21
1437486.111,-0.21
1437488.889,-0.22
1437491.667,-0.225
1437494.444,-0.21
1437497.222,-0.21
1437500,-0.205
1437502.778,-0.21
1437505.556,-0.225
1437508.333,-0.22
1437511.111,-0.205
1437513.889,-0.205
1437516.667,-0.205
1437519.444,-0.21
1437522.222,-0.225
1437525,-0.225
1437527.778,-0.21
1437530.556,-0.205
1437533.333,-0.215
1437536.111,-0.215
1437538.889,-0.215
1437541.667,-0.22
1437544.444,-0.215
1437547.222,-0.205
1437550,-0.2
1437552.778,-0.2
1437555.556,-0.215
1437558.333,-0.205
1437561.111,-0.2
1437563.889,-0.185
1437566.667,-0.18
1437569.444,-0.175
1437572.222,-0.175
1437575,-0.17
1437577.778,-0.15
1437580.556,-0.135
1437583.333,-0.125
1437586.111,-0.135
1437588.889,-0.14
1437591.667,-0.135
1437594.444,-0.105
1437597.222,-0.1
1437600,-0.095
1437602.778,-0.1
1437605.556,-0.11
1437608.333,-0.12
1437611.111,-0.105
1437613.889,-0.085
1437616.667,-0.085
1437619.444,-0.08
1437622.222,-0.095
1437625,-0.105
1437627.778,-0.11
1437630.556,-0.125
1437633.333,-0.115
1437636.111,-0.12
1437638.889,-0.135
1437641.667,-0.15
1437644.444,-0.15
1437647.222,-0.15
1437650,-0.14
1437652.778,-0.145
1437655.556,-0.165
1437658.333,-0.18
1437661.111,-0.185
1437663.889,-0.195
1437666.667,-0.205
1437669.444,-0.21
1437672.222,-0.21
1437675,-0.225
1437677.778,-0.22
1437680.556,-0.225
1437683.333,-0.23
1437686.111,-0.225
1437688.889,-0.245
1437691.667,-0.24
1437694.444,-0.235
1437697.222,-0.235
1437700,-0.235
1437702.778,-0.235
1437705.556,-0.23
1437708.333,-0.24
1437711.111,-0.235
1437713.889,-0.23
1437716.667,-0.22
1437719.444,-0.23
1437722.222,-0.235
1437725,-0.235
1437727.778,-0.22
1437730.556,-0.23
1437733.333,-0.225
1437736.111,-0.23
1437738.889,-0.24
1437741.667,-0.24
1437744.444,-0.23
1437747.222,-0.225
1437750,-0.22
1437752.778,-0.23
1437755.556,-0.24
1437758.333,-0.23
1437761.111,-0.22
1437763.889,-0.2
1437766.667,-0.195
1437769.444,-0.185
1437772.222,-0.175
1437775,-0.155
1437777.778,-0.14
1437780.556,-0.125
1437783.333,-0.11
1437786.111,-0.06
1437788.889,0.005
1437791.667,0.09
1437794.444,0.18
1437797.222,0.28
1437800,0.38
1437802.778,0.485
1437805.556,0.57
1437808.333,0.635
1437811.111,0.745
1437813.889,0.83
1437816.667,0.855
1437819.444,0.78
1437822.222,0.655
1437825,0.485
1437827.778,0.3
1437830.556,0.145
1437833.333,0.02
1437836.111,-0.09
1437838.889,-0.18
1437841.667,-0.225
1437844.444,-0.23
1437847.222,-0.21
1437850,-0.18
1437852.778,-0.165
1437855.556,-0.165
1437858.333,-0.19
1437861.111,-0.185
1437863.889,-0.195
1437866.667,-0.2
1437869.444,-0.205
1437872.222,-0.215
1437875,-0.23
1437877.778,-0.225
1437880.556,-0.225
1437883.333,-0.235
1437886.111,-0.23
1437888.889,-0.24
1437891.667,-0.24
1437894.444,-0.24
1437897.222,-0.235
1437900,-0.235
1437902.778,-0.235
1437905.556,-0.25
1437908.333,-0.24
1437911.111,-0.235
1437913.889,-0.23
1437916.667,-0.235
1437919.444,-0.24
1437922.222,-0.24
1437925,-0.24
1437927.778,-0.235
1437930.556,-0.225
1437933.333,-0.23
1437936.111,-0.23
1437938.889,-0.245
1437941.667,-0.245
1437944.444,-0.235
1437947.222,-0.23
1437950,-0.215
1437952.778,-0.225
1437955.556,-0.23
1437958.333,-0.235
1437961.111,-0.215
1437963.889,-0.22
1437966.667,-0.215
1437969.444,-0.225
1437972.222,-0.22
1437975,-0.215
1437977.778,-0.21
1437980.556,-0.195
1437983.333,-0.21
1437986.111,-0.21
1437988.889,-0.215
1437991.667,-0.22
1437994.444,-0.2
1437997.222,-0.2
1438000,-0.195
1438002.778,-0.195
1438005.556,-0.205
1438008.333,-0.19
1438011.111,-0.18
1438013.889,-0.17
1438016.667,-0.175
1438019.444,-0.175
1438022.222,-0.175
1438025,-0.18
1438027.778,-0.17
1438030.556,-0.155
1438033.333,-0.145
1438036.111,-0.145
1438038.889,-0.145
1438041.667,-0.145
1438044.444,-0.14
1438047.222,-0.115
1438050,-0.125
1438052.778,-0.11
1438055.556,-0.115
1438058.333,-0.11
1438061.111,-0.1
1438063.889,-0.09
1438066.667,-0.08
1438069.444,-0.075
1438072.222,-0.08
1438075,-0.08
1438077.778,-0.07
1438080.556,-0.06
1438083.333,-0.055
1438086.111,-0.04
1438088.889,-0.05
1438091.667,-0.035
1438094.444,-0.025
1438097.222,-0.015
1438100,-0.01
1438102.778,-0.005
1438105.556,-0.01
1438108.333,0
1438111.111,0
1438113.889,0.015
1438116.667,0.015
1438119.444,0.025
1438122.222,0.02
1438125,0.025
1438127.778,0.025
1438130.556,0.03
1438133.333,0.025
1438136.111,0.02
1438138.889,0.005
1438141.667,0
1438144.444,-0.015
1438147.222,-0.02
1438150,-0.03
1438152.778,-0.045
1438155.556,-0.06
1438158.333,-0.08
1438161.111,-0.095
1438163.889,-0.095
1438166.667,-0.1
1438169.444,-0.125
1438172.222,-0.14
1438175,-0.15
1438177.778,-0.15
1438180.556,-0.155
1438183.333,-0.165
1438186.111,-0.185
1438188.889,-0.195
1438191.667,-0.2
1438194.444,-0.205
1438197.222,-0.2
1438200,-0.205
1438202.778,-0.21
1438205.556,-0.235
1438208.333,-0.235
1438211.111,-0.225
1438213.889,-0.215
1438216.667,-0.22
1438219.444,-0.215
1438222.222,-0.235
1438225,-0.24
1438227.778,-0.23
1438230.556,-0.23
1438233.333,-0.23
1438236.111,-0.23
1438238.889,-0.245
1438241.667,-0.255
1438244.444,-0.24
1438247.222,-0.23
1438250,-0.235
1438252.778,-0.235
1438255.556,-0.25
1438258.333,-0.25
1438261.111,-0.25
1438263.889,-0.235
1438266.667,-0.235
1438269.444,-0.25
1438272.222,-0.25
1438275,-0.265
1438277.778,-0.245
1438280.556,-0.24
1438283.333,-0.235
1438286.111,-0.245
1438288.889,-0.255
1438291.667,-0.25
1438294.444,-0.245
1438297.222,-0.24
1438300,-0.235
1438302.778,-0.235
1438305.556,-0.255
1438308.333,-0.255
1438311.111,-0.255
1438313.889,-0.25
1438316.667,-0.245
1438319.444,-0.245
1438322.222,-0.25
1438325,-0.25
1438327.778,-0.245
1438330.556,-0.25
1438333.333,-0.245
1438336.111,-0.25
1438338.889,-0.255
1438341.667,-0.265
1438344.444,-0.255
1438347.222,-0.25
1438350,-0.24
1438352.778,-0.245
1438355.556,-0.265
1438358.333,-0.27
1438361.111,-0.255
1438363.889,-0.25
1438366.667,-0.245
1438369.444,-0.27
1438372.222,-0.27
1438375,-0.265
1438377.778,-0.255
1438380.556,-0.255
1438383.333,-0.26
1438386.111,-0.255
1438388.889,-0.265
1438391.667,-0.27
1438394.444,-0.26
1438397.222,-0.25
1438400,-0.255
1438402.778,-0.265
1438405.556,-0.285
1438408.333,-0.28
1438411.111,-0.275
1438413.889,-0.26
1438416.667,-0.26
1438419.444,-0.265
1438422.222,-0.285
1438425,-0.295
1438427.778,-0.29
1438430.556,-0.27
1438433.333,-0.265
1438436.111,-0.265
1438438.889,-0.28
1438441.667,-0.29
1438444.444,-0.29
1438447.222,-0.275
1438450,-0.27
1438452.778,-0.275
1438455.556,-0.28
1438458.333,-0.29
1438461.111,-0.285
1438463.889,-0.27
1438466.667,-0.28
1438469.444,-0.285
1438472.222,-0.3
1438475,-0.305
1438477.778,-0.3
1438480.556,-0.3
1438483.333,-0.29
1438486.111,-0.29
1438488.889,-0.305
1438491.667,-0.3
1438494.444,-0.3
1438497.222,-0.29
1438500,-0.29
1438502.778,-0.305
1438505.556,-0.31
1438508.333,-0.31
1438511.111,-0.29
1438513.889,-0.29
1438516.667,-0.29
1438519.444,-0.3
1438522.222,-0.32
1438525,-0.32
1438527.778,-0.315
1438530.556,-0.31
1438533.333,-0.3
1438536.111,-0.305
1438538.889,-0.305
1438541.667,-0.32
1438544.444,-0.305
1438547.222,-0.29
1438550,-0.29
1438552.778,-0.295
1438555.556,-0.305
1438558.333,-0.32
1438561.111,-0.305
1438563.889,-0.295
1438566.667,-0.29
1438569.444,-0.31
1438572.222,-0.31
1438575,-0.315
1438577.778,-0.3
1438580.556,-0.29
1438583.333,-0.29
1438586.111,-0.305
1438588.889,-0.31
1438591.667,-0.31
1438594.444,-0.305
1438597.222,-0.3
1438600,-0.295
1438602.778,-0.3
1438605.556,-0.305
1438608.333,-0.31
1438611.111,-0.3
1438613.889,-0.29
1438616.667,-0.295
1438619.444,-0.305
1438622.222,-0.31
1438625,-0.315
1438627.778,-0.31
1438630.556,-0.3
1438633.333,-0.3
1438636.111,-0.31
1438638.889,-0.31
1438641.667,-0.315
1438644.444,-0.315
1438647.222,-0.295
1438650,-0.295
1438652.778,-0.295
1438655.556,-0.305
1438658.333,-0.315
1438661.111,-0.295
1438663.889,-0.295
1438666.667,-0.3
1438669.444,-0.305
1438672.222,-0.31
1438675,-0.305
1438677.778,-0.295
1438680.556,-0.29
1438683.333,-0.285
1438686.111,-0.29
1438688.889,-0.305
1438691.667,-0.305
1438694.444,-0.295
1438697.222,-0.29
1438700,-0.295
1438702.778,-0.305
1438705.556,-0.315
1438708.333,-0.31
1438711.111,-0.295
1438713.889,-0.29
1438716.667,-0.29
1438719.444,-0.3
1438722.222,-0.31
1438725,-0.305
1438727.778,-0.3
1438730.556,-0.29
1438733.333,-0.295
1438736.111,-0.305
1438738.889,-0.315
1438741.667,-0.31
1438744.444,-0.3
1438747.222,-0.295
1438750,-0.295
1438752.778,-0.305
1438755.556,-0.305
1438758.333,-0.305
1438761.111,-0.295
1438763.889,-0.3
1438766.667,-0.3
1438769.444,-0.3
1438772.222,-0.31
1438775,-0.305
1438777.778,-0.29
1438780.556,-0.29
1438783.333,-0.28
1438786.111,-0.285
1438788.889,-0.295
1438791.667,-0.29
1438794.444,-0.26
1438797.222,-0.25
1438800,-0.245
1438802.778,-0.24
1438805.556,-0.245
1438808.333,-0.24
1438811.111,-0.225
1438813.889,-0.205
1438816.667,-0.2
1438819.444,-0.205
1438822.222,-0.205
1438825,-0.2
1438827.778,-0.195
1438830.556,-0.185
1438833.333,-0.18
1438836.111,-0.18
1438838.889,-0.185
1438841.667,-0.18
1438844.444,-0.185
1438847.222,-0.19
1438850,-0.195
1438852.778,-0.21
1438855.556,-0.22
1438858.333,-0.225
1438861.111,-0.22
1438863.889,-0.225
1438866.667,-0.235
1438869.444,-0.25
1438872.222,-0.26
1438875,-0.26
1438877.778,-0.26
1438880.556,-0.265
1438883.333,-0.285
1438886.111,-0.285
1438888.889,-0.305
1438891.667,-0.31
1438894.444,-0.295
1438897.222,-0.29
1438900,-0.295
1438902.778,-0.305
1438905.556,-0.32
1438908.333,-0.32
1438911.111,-0.3
1438913.889,-0.295
1438916.667,-0.305
1438919.444,-0.31
1438922.222,-0.31
1438925,-0.31
1438927.778,-0.29
1438930.556,-0.285
1438933.333,-0.3
1438936.111,-0.3
1438938.889,-0.3
1438941.667,-0.295
1438944.444,-0.295
1438947.222,-0.28
1438950,-0.28
1438952.778,-0.29
1438955.556,-0.305
1438958.333,-0.3
1438961.111,-0.29
1438963.889,-0.29
1438966.667,-0.29
1438969.444,-0.29
1438972.222,-0.295
1438975,-0.295
1438977.778,-0.275
1438980.556,-0.265
1438983.333,-0.24
1438986.111,-0.24
1438988.889,-0.225
1438991.667,-0.21
1438994.444,-0.195
1438997.222,-0.145
1439000,-0.095
1439002.778,0.005
1439005.556,0.09
1439008.333,0.195
1439011.111,0.325
1439013.889,0.44
1439016.667,0.535
1439019.444,0.62
1439022.222,0.715
1439025,0.815
1439027.778,0.885
1439030.556,0.85
1439033.333,0.72
1439036.111,0.54
1439038.889,0.325
1439041.667,0.125
1439044.444,-0.03
1439047.222,-0.13
1439050,-0.225
1439052.778,-0.3
1439055.556,-0.32
1439058.333,-0.3
1439061.111,-0.25
1439063.889,-0.21
1439066.667,-0.205
1439069.444,-0.225
1439072.222,-0.25
1439075,-0.265
1439077.778,-0.265
1439080.556,-0.255
1439083.333,-0.255
1439086.111,-0.275
1439088.889,-0.28
1439091.667,-0.285
1439094.444,-0.275
1439097.222,-0.275
1439100,-0.275
1439102.778,-0.28
1439105.556,-0.29
1439108.333,-0.285
1439111.111,-0.275
1439113.889,-0.275
1439116.667,-0.265
1439119.444,-0.275
1439122.222,-0.28
1439125,-0.285
1439127.778,-0.275
1439130.556,-0.26
1439133.333,-0.265
1439136.111,-0.27
1439138.889,-0.27
1439141.667,-0.28
1439144.444,-0.265
1439147.222,-0.26
1439150,-0.26
1439152.778,-0.27
1439155.556,-0.27
1439158.333,-0.265
1439161.111,-0.26
1439163.889,-0.245
1439166.667,-0.24
1439169.444,-0.245
1439172.222,-0.25
1439175,-0.24
1439177.778,-0.235
1439180.556,-0.22
1439183.333,-0.215
1439186.111,-0.22
1439188.889,-0.22
1439191.667,-0.225
1439194.444,-0.215
1439197.222,-0.21
1439200,-0.21
1439202.778,-0.205
1439205.556,-0.22
1439208.333,-0.21
1439211.111,-0.2
1439213.889,-0.2
1439216.667,-0.19
1439219.444,-0.18
1439222.222,-0.185
1439225,-0.175
1439227.778,-0.165
1439230.556,-0.15
1439233.333,-0.15
1439236.111,-0.14
1439238.889,-0.145
1439241.667,-0.15
1439244.444,-0.125
1439247.222,-0.105
1439250,-0.11
1439252.778,-0.1
1439255.556,-0.1
1439258.333,-0.105
1439261.111,-0.08
1439263.889,-0.065
1439266.667,-0.055
1439269.444,-0.045
1439272.222,-0.05
1439275,-0.055
1439277.778,-0.04
1439280.556,-0.01
1439283.333,-0.005
1439286.111,-0.01
1439288.889,-0.005
1439291.667,-0.005
1439294.444,0.02
1439297.222,0.02
1439300,0.02
1439302.778,0.025
1439305.556,0.02
1439308.333,0.015
1439311.111,0.03
1439313.889,0.03
1439316.667,0.015
1439319.444,0.01
1439322.222,-0.015
1439325,-0.03
1439327.778,-0.03
1439330.556,-0.045
1439333.333,-0.07
1439336.111,-0.07
1439338.889,-0.095
1439341.667,-0.105
1439344.444,-0.12
1439347.222,-0.125
1439350,-0.14
1439352.778,-0.15
1439355.556,-0.16
1439358.333,-0.17
1439361.111,-0.185
1439363.889,-0.18
1439366.667,-0.185
1439369.444,-0.195
1439372.222,-0.195
1439375,-0.205
1439377.778,-0.2
1439380.556,-0.2
1439383.333,-0.2
1439386.111,-0.205
1439388.889,-0.225
1439391.667,-0.215
1439394.444,-0.21
1439397.222,-0.21
1439400,-0.205
1439402.778,-0.205
1439405.556,-0.215
1439408.333,-0.225
1439411.111,-0.21
1439413.889,-0.21
1439416.667,-0.205
1439419.444,-0.21
1439422.222,-0.215
1439425,-0.215
1439427.778,-0.21
1439430.556,-0.195
1439433.333,-0.205
1439436.111,-0.205
1439438.889,-0.215
1439441.667,-0.215
1439444.444,-0.21
1439447.222,-0.2
1439450,-0.2
1439452.778,-0.205
1439455.556,-0.21
1439458.333,-0.215
1439461.111,-0.205
1439463.889,-0.2
1439466.667,-0.19
1439469.444,-0.21
1439472.222,-0.21
1439475,-0.21
1439477.778,-0.19
1439480.556,-0.2
1439483.333,-0.19
1439486.111,-0.2
1439488.889,-0.205
1439491.667,-0.205
1439494.444,-0.19
1439497.222,-0.2
1439500,-0.2
1439502.778,-0.205
1439505.556,-0.215
1439508.333,-0.225
1439511.111,-0.205
1439513.889,-0.195
1439516.667,-0.195
1439519.444,-0.2
1439522.222,-0.215
1439525,-0.205
1439527.778,-0.225
1439530.556,-0.2
1439533.333,-0.21
1439536.111,-0.205
1439538.889,-0.215
1439541.667,-0.22
1439544.444,-0.21
1439547.222,-0.21
1439550,-0.215
1439552.778,-0.22
1439555.556,-0.215
1439558.333,-0.22
1439561.111,-0.21
1439563.889,-0.21
1439566.667,-0.205
1439569.444,-0.22
1439572.222,-0.22
1439575,-0.23
1439577.778,-0.235
1439580.556,-0.215
1439583.333,-0.21
1439586.111,-0.21
1439588.889,-0.23
1439591.667,-0.23
1439594.444,-0.225
1439597.222,-0.21
1439600,-0.21
1439602.778,-0.23
1439605.556,-0.225
1439608.333,-0.23
1439611.111,-0.22
1439613.889,-0.205
1439616.667,-0.22
1439619.444,-0.215
1439622.222,-0.23
1439625,-0.225
1439627.778,-0.22
1439630.556,-0.205
1439633.333,-0.21
1439636.111,-0.215
1439638.889,-0.23
1439641.667,-0.225
1439644.444,-0.215
1439647.222,-0.205
1439650,-0.21
1439652.778,-0.225
1439655.556,-0.24
1439658.333,-0.23
1439661.111,-0.22
1439663.889,-0.205
1439666.667,-0.215
1439669.444,-0.22
1439672.222,-0.225
1439675,-0.235
1439677.778,-0.22
1439680.556,-0.225
1439683.333,-0.22
1439686.111,-0.22
1439688.889,-0.225
1439691.667,-0.225
1439694.444,-0.22
1439697.222,-0.21
1439700,-0.215
1439702.778,-0.225
1439705.556,-0.23
1439708.333,-0.235
1439711.111,-0.225
1439713.889,-0.215
1439716.667,-0.215
1439719.444,-0.22
1439722.222,-0.235
1439725,-0.23
1439727.778,-0.225
1439730.556,-0.215
1439733.333,-0.22
1439736.111,-0.225
1439738.889,-0.225
1439741.667,-0.23
1439744.444,-0.215
1439747.222,-0.215
1439750,-0.22
1439752.778,-0.225
1439755.556,-0.225
1439758.333,-0.23
1439761.111,-0.22
1439763.889,-0.215
1439766.667,-0.225
1439769.444,-0.215
1439772.222,-0.225
1439775,-0.22
1439777.778,-0.21
1439780.556,-0.215
1439783.333,-0.205
1439786.111,-0.21
1439788.889,-0.21
1439791.667,-0.22
1439794.444,-0.22
1439797.222,-0.21
1439800,-0.215
1439802.778,-0.21
1439805.556,-0.225
1439808.333,-0.215
1439811.111,-0.215
1439813.889,-0.21
1439816.667,-0.215
1439819.444,-0.205
1439822.222,-0.215
1439825,-0.215
1439827.778,-0.215
1439830.556,-0.205
1439833.333,-0.205
1439836.111,-0.21
1439838.889,-0.22
1439841.667,-0.215
1439844.444,-0.21
1439847.222,-0.205
1439850,-0.21
1439852.778,-0.21
1439855.556,-0.215
1439858.333,-0.215
1439861.111,-0.21
1439863.889,-0.2
1439866.667,-0.2
1439869.444,-0.205
1439872.222,-0.22
1439875,-0.22
1439877.778,-0.21
1439880.556,-0.215
1439883.333,-0.205
1439886.111,-0.195
1439888.889,-0.21
1439891.667,-0.21
1439894.444,-0.205
1439897.222,-0.205
1439900,-0.2
1439902.778,-0.195
1439905.556,-0.195
1439908.333,-0.21
1439911.111,-0.19
1439913.889,-0.175
1439916.667,-0.175
1439919.444,-0.16
1439922.222,-0.16
1439925,-0.155
1439927.778,-0.135
1439930.556,-0.125
1439933.333,-0.12
1439936.111,-0.11
1439938.889,-0.11
1439941.667,-0.11
1439944.444,-0.1
1439947.222,-0.1
1439950,-0.095
1439952.778,-0.095
1439955.556,-0.1
1439958.333,-0.095
1439961.111,-0.1
1439963.889,-0.1
1439966.667,-0.095
1439969.444,-0.125
1439972.222,-0.135
1439975,-0.14
1439977.778,-0.13
1439980.556,-0.13
1439983.333,-0.135
1439986.111,-0.15
1439988.889,-0.16
1439991.667,-0.17
1439994.444,-0.17
1439997.222,-0.17
1440000,-0.19
1440002.778,-0.21
1440005.556,-0.22
1440008.333,-0.22
1440011.111,-0.215
1440013.889,-0.22
1440016.667,-0.225
1440019.444,-0.235
1440022.222,-0.235
1440025,-0.235
1440027.778,-0.235
1440030.556,-0.23
1440033.333,-0.23
1440036.111,-0.225
1440038.889,-0.25
1440041.667,-0.245
1440044.444,-0.23
1440047.222,-0.22
1440050,-0.23
1440052.778,-0.25
1440055.556,-0.25
1440058.333,-0.245
1440061.111,-0.23
1440063.889,-0.22
1440066.667,-0.225
1440069.444,-0.23
1440072.222,-0.245
1440075,-0.24
1440077.778,-0.22
1440080.556,-0.215
1440083.333,-0.22
1440086.111,-0.22
1440088.889,-0.235
1440091.667,-0.215
1440094.444,-0.19
1440097.222,-0.165
1440100,-0.15
1440102.778,-0.15
1440105.556,-0.135
1440108.333,-0.07
1440111.111,0.035
1440113.889,0.15
1440116.667,0.265
1440119.444,0.395
1440122.222,0.515
1440125,0.625
1440127.778,0.75
1440130.556,0.85
1440133.333,0.87
1440136.111,0.75
1440138.889,0.56
1440141.667,0.325
1440144.444,0.105
1440147.222,-0.03
1440150,-0.135
1440152.778,-0.195
1440155.556,-0.225
1440158.333,-0.205
1440161.111,-0.165
1440163.889,-0.155
1440166.667,-0.165
1440169.444,-0.185
1440172.222,-0.2
1440175,-0.215
1440177.778,-0.22
1440180.556,-0.215
1440183.333,-0.22
1440186.111,-0.225
1440188.889,-0.235
1440191.667,-0.245
1440194.444,-0.23
1440197.222,-0.225
1440200,-0.23
1440202.778,-0.24
1440205.556,-0.24
1440208.333,-0.245
1440211.111,-0.23
1440213.889,-0.22
1440216.667,-0.22
1440219.444,-0.225
1440222.222,-0.225
1440225,-0.24
1440227.778,-0.22
1440230.556,-0.21
1440233.333,-0.205
1440236.111,-0.215
1440238.889,-0.22
1440241.667,-0.215
1440244.444,-0.205
1440247.222,-0.195
1440250,-0.2
1440252.778,-0.215
1440255.556,-0.215
1440258.333,-0.205
1440261.111,-0.195
1440263.889,-0.195
1440266.667,-0.19
1440269.444,-0.195
1440272.222,-0.195
1440275,-0.185
1440277.778,-0.175
1440280.556,-0.17
1440283.333,-0.165
1440286.111,-0.17
1440288.889,-0.175
1440291.667,-0.17
1440294.444,-0.16
1440297.222,-0.155
1440300,-0.155
1440302.778,-0.15
1440305.556,-0.155
1440308.333,-0.15
1440311.111,-0.135
1440313.889,-0.135
1440316.667,-0.12
1440319.444,-0.12
1440322.222,-0.115
1440325,-0.115
1440327.778,-0.095
1440330.556,-0.08
1440333.333,-0.08
1440336.111,-0.08
1440338.889,-0.075
1440341.667,-0.065
1440344.444,-0.055
1440347.222,-0.045
1440350,-0.04
1440352.778,-0.04
1440355.556,-0.035
1440358.333,-0.025
1440361.111,-0.015
1440363.889,0
1440366.667,0.005
1440369.444,0.005
1440372.222,0.02
1440375,0.015
1440377.778,0.025
1440380.556,0.04
1440383.333,0.04
1440386.111,0.05
1440388.889,0.045
1440391.667,0.045
1440394.444,0.055
1440397.222,0.055
1440400,0.055
1440402.778,0.045
1440405.556,0.035
1440408.333,0.02
1440411.111,0.025
1440413.889,0.015
1440416.667,0
1440419.444,-0.01
1440422.222,-0.03
1440425,-0.035
1440427.778,-0.05
1440430.556,-0.06
1440433.333,-0.07
1440436.111,-0.085
1440438.889,-0.105
1440441.667,-0.12
1440444.444,-0.125
1440447.222,-0.12
1440450,-0.13
1440452.778,-0.14
1440455.556,-0.165
1440458.333,-0.16
1440461.111,-0.165
1440463.889,-0.16
1440466.667,-0.155
1440469.444,-0.175
1440472.222,-0.19
1440475,-0.19
1440477.778,-0.17
1440480.556,-0.17
1440483.333,-0.175
1440486.111,-0.185
1440488.889,-0.195
1440491.667,-0.195
1440494.444,-0.19
1440497.222,-0.175
1440500,-0.185
1440502.778,-0.19
1440505.556,-0.195
1440508.333,-0.2
1440511.111,-0.18
1440513.889,-0.175
1440516.667,-0.175
1440519.444,-0.18
1440522.222,-0.185
1440525,-0.185
1440527.778,-0.19
1440530.556,-0.175
1440533.333,-0.19
1440536.111,-0.19
1440538.889,-0.195
1440541.667,-0.19
1440544.444,-0.19
1440547.222,-0.175
1440550,-0.175
1440552.778,-0.195
1440555.556,-0.2
1440558.333,-0.2
1440561.111,-0.195
1440563.889,-0.185
1440566.667,-0.195
1440569.444,-0.2
1440572.222,-0.205
1440575,-0.2
1440577.778,-0.185
1440580.556,-0.175
1440583.333,-0.185
1440586.111,-0.195
1440588.889,-0.2
1440591.667,-0.205
1440594.444,-0.2
1440597.222,-0.185
1440600,-0.2
1440602.778,-0.22
1440605.556,-0.21
1440608.333,-0.21
1440611.111,-0.195
1440613.889,-0.18
1440616.667,-0.195
1440619.444,-0.195
1440622.222,-0.205
1440625,-0.21
1440627.778,-0.2
1440630.556,-0.19
1440633.333,-0.195
1440636.111,-0.21
1440638.889,-0.205
1440641.667,-0.2
1440644.444,-0.2
1440647.222,-0.19
1440650,-0.2
1440652.778,-0.21
1440655.556,-0.205
1440658.333,-0.205
1440661.111,-0.205
1440663.889,-0.195
1440666.667,-0.205
1440669.444,-0.215
1440672.222,-0.215
1440675,-0.215
1440677.778,-0.2
1440680.556,-0.195
1440683.333,-0.205
1440686.111,-0.21
1440688.889,-0.21
1440691.667,-0.22
1440694.444,-0.21
1440697.222,-0.205
1440700,-0.215
1440702.778,-0.21
1440705.556,-0.22
1440708.333,-0.21
1440711.111,-0.205
1440713.889,-0.195
1440716.667,-0.205
1440719.444,-0.215
1440722.222,-0.22
1440725,-0.225
1440727.778,-0.21
1440730.556,-0.215
1440733.333,-0.22
1440736.111,-0.22
1440738.889,-0.23
1440741.667,-0.23
1440744.444,-0.22
1440747.222,-0.225
1440750,-0.225
1440752.778,-0.22
1440755.556,-0.225
1440758.333,-0.235
1440761.111,-0.225
1440763.889,-0.22
1440766.667,-0.23
1440769.444,-0.23
1440772.222,-0.23
1440775,-0.235
1440777.778,-0.23
1440780.556,-0.22
1440783.333,-0.22
1440786.111,-0.22
1440788.889,-0.225
1440791.667,-0.225
1440794.444,-0.225
1440797.222,-0.21
1440800,-0.225
1440802.778,-0.225
1440805.556,-0.23
1440808.333,-0.235
1440811.111,-0.23
1440813.889,-0.22
1440816.667,-0.22
1440819.444,-0.23
1440822.222,-0.235
1440825,-0.235
1440827.778,-0.235
1440830.556,-0.225
1440833.333,-0.23
1440836.111,-0.225
1440838.889,-0.24
1440841.667,-0.24
1440844.444,-0.23
1440847.222,-0.225
1440850,-0.225
1440852.778,-0.23
1440855.556,-0.235
1440858.333,-0.235
1440861.111,-0.235
1440863.889,-0.225
1440866.667,-0.225
1440869.444,-0.24
1440872.222,-0.225
1440875,-0.235
1440877.778,-0.235
1440880.556,-0.225
1440883.333,-0.23
1440886.111,-0.23
1440888.889,-0.245
1440891.667,-0.24
1440894.444,-0.235
1440897.222,-0.225
1440900,-0.23
1440902.778,-0.235
1440905.556,-0.25
1440908.333,-0.25
1440911.111,-0.24
1440913.889,-0.23
1440916.667,-0.23
1440919.444,-0.24
1440922.222,-0.245
1440925,-0.245
1440927.778,-0.235
1440930.556,-0.23
1440933.333,-0.23
1440936.111,-0.235
1440938.889,-0.245
1440941.667,-0.255
1440944.444,-0.24
1440947.222,-0.225
1440950,-0.225
1440952.778,-0.245
1440955.556,-0.24
1440958.333,-0.25
1440961.111,-0.245
1440963.889,-0.23
1440966.667,-0.225
1440969.444,-0.24
1440972.222,-0.25
1440975,-0.25
1440977.778,-0.24
1440980.556,-0.24
1440983.333,-0.235
1440986.111,-0.24
1440988.889,-0.245
1440991.667,-0.245
1440994.444,-0.24
1440997.222,-0.24
1441000,-0.235
1441002.778,-0.245
1441005.556,-0.245
1441008.333,-0.245
1441011.111,-0.24
1441013.889,-0.225
1441016.667,-0.235
1441019.444,-0.245
1441022.222,-0.245
1441025,-0.24
1441027.778,-0.235
1441030.556,-0.22
1441033.333,-0.225
1441036.111,-0.23
1441038.889,-0.235
1441041.667,-0.23
1441044.444,-0.22
1441047.222,-0.205
1441050,-0.215
1441052.778,-0.215
1441055.556,-0.21
1441058.333,-0.2
1441061.111,-0.18
1441063.889,-0.165
1441066.667,-0.17
1441069.444,-0.17
1441072.222,-0.165
1441075,-0.15
1441077.778,-0.14
1441080.556,-0.13
1441083.333,-0.13
1441086.111,-0.13
1441088.889,-0.14
1441091.667,-0.115
1441094.444,-0.1
1441097.222,-0.1
1441100,-0.105
1441102.778,-0.12
1441105.556,-0.135
1441108.333,-0.155
1441111.111,-0.155
1441113.889,-0.145
1441116.667,-0.16
1441119.444,-0.17
1441122.222,-0.185
1441125,-0.2
1441127.778,-0.205
1441130.556,-0.195
1441133.333,-0.21
1441136.111,-0.225
1441138.889,-0.245
1441141.667,-0.25
1441144.444,-0.24
1441147.222,-0.235
1441150,-0.245
1441152.778,-0.245
1441155.556,-0.275
1441158.333,-0.28
1441161.111,-0.26
1441163.889,-0.25
1441166.667,-0.255
1441169.444,-0.26
1441172.222,-0.265
1441175,-0.26
1441177.778,-0.255
1441180.556,-0.24
1441183.333,-0.255
1441186.111,-0.255
1441188.889,-0.255
1441191.667,-0.265
1441194.444,-0.25
1441197.222,-0.245
1441200,-0.255
1441202.778,-0.26
1441205.556,-0.26
1441208.333,-0.255
1441211.111,-0.24
1441213.889,-0.235
1441216.667,-0.235
1441219.444,-0.25
1441222.222,-0.235
1441225,-0.22
1441227.778,-0.18
1441230.556,-0.16
1441233.333,-0.16
1441236.111,-0.125
1441238.889,-0.065
1441241.667,0.035
1441244.444,0.165
1441247.222,0.295
1441250,0.42
1441252.778,0.515
1441255.556,0.6
1441258.333,0.72
1441261.111,0.845
1441263.889,0.915
1441266.667,0.87
1441269.444,0.74
1441272.222,0.52
1441275,0.265
1441277.778,0.045
1441280.556,-0.1
1441283.333,-0.225
1441286.111,-0.31
1441288.889,-0.34
1441291.667,-0.32
1441294.444,-0.26
1441297.222,-0.22
1441300,-0.215
1441302.778,-0.22
1441305.556,-0.235
1441308.333,-0.245
1441311.111,-0.24
1441313.889,-0.245
1441316.667,-0.25
1441319.444,-0.265
1441322.222,-0.27
1441325,-0.275
1441327.778,-0.27
1441330.556,-0.26
1441333.333,-0.265
1441336.111,-0.265
1441338.889,-0.275
1441341.667,-0.27
1441344.444,-0.265
1441347.222,-0.25
1441350,-0.26
1441352.778,-0.255
1441355.556,-0.265
1441358.333,-0.275
1441361.111,-0.26
1441363.889,-0.25
1441366.667,-0.255
1441369.444,-0.265
1441372.222,-0.265
1441375,-0.27
1441377.778,-0.27
1441380.556,-0.25
1441383.333,-0.25
1441386.111,-0.245
1441388.889,-0.25
1441391.667,-0.255
1441394.444,-0.25
1441397.222,-0.24
1441400,-0.245
1441402.778,-0.24
1441405.556,-0.245
1441408.333,-0.24
1441411.111,-0.245
1441413.889,-0.23
1441416.667,-0.225
1441419.444,-0.225
1441422.222,-0.225
1441425,-0.225
1441427.778,-0.23
1441430.556,-0.215
1441433.333,-0.205
1441436.111,-0.21
1441438.889,-0.21
1441441.667,-0.205
1441444.444,-0.19
1441447.222,-0.18
1441450,-0.18
1441452.778,-0.19
1441455.556,-0.19
1441458.333,-0.175
1441461.111,-0.17
1441463.889,-0.16
1441466.667,-0.15
1441469.444,-0.15
1441472.222,-0.155
1441475,-0.14
1441477.778,-0.125
1441480.556,-0.115
1441483.333,-0.11
1441486.111,-0.105
1441488.889,-0.105
1441491.667,-0.1
1441494.444,-0.095
1441497.222,-0.07
1441500,-0.06
1441502.778,-0.065
1441505.556,-0.06
1441508.333,-0.06
1441511.111,-0.03
1441513.889,-0.03
1441516.667,-0.02
1441519.444,-0.01
1441522.222,-0.01
1441525,-0.01
1441527.778,0
1441530.556,0.02
1441533.333,0.025
1441536.111,0.015
1441538.889,0.01
1441541.667,0.02
1441544.444,0.03
1441547.222,0.04
1441550,0.035
1441552.778,0.025
1441555.556,0.01
1441558.333,0.005
1441561.111,0
1441563.889,0.005
1441566.667,-0.015
1441569.444,-0.03
1441572.222,-0.05
1441575,-0.06
1441577.778,-0.07
1441580.556,-0.075
1441583.333,-0.09
1441586.111,-0.105
1441588.889,-0.125
1441591.667,-0.14
1441594.444,-0.145
1441597.222,-0.15
1441600,-0.155
1441602.778,-0.165
1441605.556,-0.18
1441608.333,-0.185
1441611.111,-0.19
1441613.889,-0.19
1441616.667,-0.2
1441619.444,-0.195
1441622.222,-0.21
1441625,-0.21
1441627.778,-0.2
1441630.556,-0.205
1441633.333,-0.21
1441636.111,-0.215
1441638.889,-0.21
1441641.667,-0.22
1441644.444,-0.22
1441647.222,-0.21
1441650,-0.205
1441652.778,-0.22
1441655.556,-0.225
1441658.333,-0.22
1441661.111,-0.205
1441663.889,-0.195
1441666.667,-0.2
1441669.444,-0.215
1441672.222,-0.215
1441675,-0.21
1441677.778,-0.215
1441680.556,-0.2
1441683.333,-0.21
1441686.111,-0.205
1441688.889,-0.21
1441691.667,-0.205
1441694.444,-0.195
1441697.222,-0.2
1441700,-0.2
1441702.778,-0.205
1441705.556,-0.2
1441708.333,-0.215
1441711.111,-0.2
1441713.889,-0.185
1441716.667,-0.205
1441719.444,-0.195
1441722.222,-0.2
1441725,-0.195
1441727.778,-0.185
1441730.556,-0.185
1441733.333,-0.185
1441736.111,-0.2
1441738.889,-0.21
1441741.667,-0.2
1441744.444,-0.185
1441747.222,-0.18
1441750,-0.185
1441752.778,-0.195
1441755.556,-0.195
1441758.333,-0.205
1441761.111,-0.195
1441763.889,-0.185
1441766.667,-0.19
1441769.444,-0.205
1441772.222,-0.215
1441775,-0.2
1441777.778,-0.195
1441780.556,-0.185
1441783.333,-0.19
1441786.111,-0.195
1441788.889,-0.205
1441791.667,-0.21
1441794.444,-0.19
1441797.222,-0.19
1441800,-0.2
1441802.778,-0.215
1441805.556,-0.205
1441808.333,-0.205
1441811.111,-0.195
1441813.889,-0.185
1441816.667,-0.195
1441819.444,-0.2
1441822.222,-0.21
1441825,-0.215
1441827.778,-0.2
1441830.556,-0.185
1441833.333,-0.2
1441836.111,-0.2
1441838.889,-0.2
1441841.667,-0.215
1441844.444,-0.2
1441847.222,-0.19
1441850,-0.195
1441852.778,-0.205
1441855.556,-0.21
1441858.333,-0.21
1441861.111,-0.21
1441863.889,-0.2
1441866.667,-0.2
1441869.444,-0.205
1441872.222,-0.21
1441875,-0.205
1441877.778,-0.2
1441880.556,-0.195
1441883.333,-0.21
1441886.111,-0.21
1441888.889,-0.21
1441891.667,-0.21
1441894.444,-0.205
1441897.222,-0.2
1441900,-0.21
1441902.778,-0.21
1441905.556,-0.21
1441908.333,-0.205
1441911.111,-0.2
1441913.889,-0.195
1441916.667,-0.2
1441919.444,-0.205
1441922.222,-0.205
1441925,-0.21
1441927.778,-0.2
1441930.556,-0.195
1441933.333,-0.205
1441936.111,-0.205
1441938.889,-0.215
1441941.667,-0.205
1441944.444,-0.205
1441947.222,-0.195
1441950,-0.2
1441952.778,-0.205
1441955.556,-0.215
1441958.333,-0.21
1441961.111,-0.205
1441963.889,-0.2
1441966.667,-0.2
1441969.444,-0.205
1441972.222,-0.205
1441975,-0.205
1441977.778,-0.19
1441980.556,-0.19
1441983.333,-0.195
1441986.111,-0.2
1441988.889,-0.205
1441991.667,-0.21
1441994.444,-0.2
1441997.222,-0.19
1442000,-0.195
1442002.778,-0.19
1442005.556,-0.21
1442008.333,-0.195
1442011.111,-0.195
1442013.889,-0.185
1442016.667,-0.19
1442019.444,-0.195
1442022.222,-0.205
1442025,-0.205
1442027.778,-0.205
1442030.556,-0.19
1442033.333,-0.185
1442036.111,-0.195
1442038.889,-0.195
1442041.667,-0.2
1442044.444,-0.2
1442047.222,-0.19
1442050,-0.195
1442052.778,-0.2
1442055.556,-0.195
1442058.333,-0.2
1442061.111,-0.195
1442063.889,-0.185
1442066.667,-0.185
1442069.444,-0.2
1442072.222,-0.2
1442075,-0.2
1442077.778,-0.2
1442080.556,-0.195
1442083.333,-0.195
1442086.111,-0.195
1442088.889,-0.21
1442091.667,-0.205
1442094.444,-0.2
1442097.222,-0.185
1442100,-0.19
1442102.778,-0.195
1442105.556,-0.205
1442108.333,-0.195
1442111.111,-0.19
1442113.889,-0.185
1442116.667,-0.185
1442119.444,-0.19
1442122.222,-0.205
1442125,-0.195
1442127.778,-0.19
1442130.556,-0.18
1442133.333,-0.19
1442136.111,-0.195
1442138.889,-0.205
1442141.667,-0.2
1442144.444,-0.185
1442147.222,-0.185
1442150,-0.185
1442152.778,-0.185
1442155.556,-0.19
1442158.333,-0.185
1442161.111,-0.18
1442163.889,-0.175
1442166.667,-0.175
1442169.444,-0.17
1442172.222,-0.16
1442175,-0.16
1442177.778,-0.14
1442180.556,-0.115
1442183.333,-0.12
1442186.111,-0.125
1442188.889,-0.12
1442191.667,-0.115
1442194.444,-0.095
1442197.222,-0.075
1442200,-0.085
1442202.778,-0.085
1442205.556,-0.085
1442208.333,-0.075
1442211.111,-0.075
1442213.889,-0.065
1442216.667,-0.055
1442219.444,-0.06
1442222.222,-0.065
1442225,-0.075
1442227.778,-0.085
1442230.556,-0.08
1442233.333,-0.1
1442236.111,-0.1
1442238.889,-0.1
1442241.667,-0.105
1442244.444,-0.105
1442247.222,-0.105
1442250,-0.12
1442252.778,-0.14
1442255.556,-0.145
1442258.333,-0.145
1442261.111,-0.145
1442263.889,-0.155
1442266.667,-0.175
1442269.444,-0.18
1442272.222,-0.205
1442275,-0.2
1442277.778,-0.19
1442280.556,-0.18
1442283.333,-0.2
1442286.111,-0.21
1442288.889,-0.22
1442291.667,-0.22
1442294.444,-0.21
1442297.222,-0.2
1442300,-0.205
1442302.778,-0.22
1442305.556,-0.225
1442308.333,-0.215
1442311.111,-0.21
1442313.889,-0.21
1442316.667,-0.205
1442319.444,-0.205
1442322.222,-0.22
1442325,-0.215
1442327.778,-0.215
1442330.556,-0.195
1442333.333,-0.2
1442336.111,-0.2
1442338.889,-0.21
1442341.667,-0.215
1442344.444,-0.205
1442347.222,-0.2
1442350,-0.2
1442352.778,-0.2
1442355.556,-0.215
1442358.333,-0.2
1442361.111,-0.19
1442363.889,-0.17
1442366.667,-0.17
1442369.444,-0.155
1442372.222,-0.14
1442375,-0.12
1442377.778,-0.105
1442380.556,-0.08
1442383.333,-0.025
1442386.111,0.05
1442388.889,0.13
1442391.667,0.21
1442394.444,0.305
1442397.222,0.41
1442400,0.525
1442402.778,0.615
1442405.556,0.69
1442408.333,0.775
1442411.111,0.87
1442413.889,0.915
1442416.667,0.86
1442419.444,0.725
1442422.222,0.55
1442425,0.36
1442427.778,0.17
1442430.556,0.035
1442433.333,-0.06
1442436.111,-0.125
1442438.889,-0.185
1442441.667,-0.2
1442444.444,-0.185
1442447.222,-0.15
1442450,-0.125
1442452.778,-0.13
1442455.556,-0.145
1442458.333,-0.16
1442461.111,-0.175
1442463.889,-0.175
1442466.667,-0.195
1442469.444,-0.2
1442472.222,-0.21
1442475,-0.21
1442477.778,-0.205
1442480.556,-0.2
1442483.333,-0.205
1442486.111,-0.22
1442488.889,-0.215
1442491.667,-0.215
1442494.444,-0.21
1442497.222,-0.205
1442500,-0.21
1442502.778,-0.205
1442505.556,-0.21
1442508.333,-0.21
1442511.111,-0.195
1442513.889,-0.2
1442516.667,-0.195
1442519.444,-0.2
1442522.222,-0.21
1442525,-0.205
1442527.778,-0.19
1442530.556,-0.19
1442533.333,-0.195
1442536.111,-0.195
1442538.889,-0.21
1442541.667,-0.195
1442544.444,-0.185
1442547.222,-0.175
1442550,-0.175
1442552.778,-0.18
1442555.556,-0.185
1442558.333,-0.185
1442561.111,-0.19
1442563.889,-0.165
1442566.667,-0.17
1442569.444,-0.17
1442572.222,-0.185
1442575,-0.185
1442577.778,-0.17
1442580.556,-0.16
1442583.333,-0.155
1442586.111,-0.16
1442588.889,-0.16
1442591.667,-0.165
1442594.444,-0.155
1442597.222,-0.145
1442600,-0.145
1442602.778,-0.15
1442605.556,-0.155
1442608.333,-0.145
1442611.111,-0.13
1442613.889,-0.11
1442616.667,-0.115
1442619.444,-0.115
1442622.222,-0.125
1442625,-0.12
1442627.778,-0.105
1442630.556,-0.095
1442633.333,-0.09
1442636.111,-0.085
1442638.889,-0.085
1442641.667,-0.085
1442644.444,-0.075
1442647.222,-0.065
1442650,-0.05
1442652.778,-0.055
1442655.556,-0.045
1442658.333,-0.045
1442661.111,-0.025
1442663.889,-0.015
1442666.667,0
1442669.444,0
1442672.222,0
1442675,0.005
1442677.778,0.015
1442680.556,0.025
1442683.333,0.035
1442686.111,0.03
1442688.889,0.03
1442691.667,0.035
1442694.444,0.05
1442697.222,0.06
1442700,0.07
1442702.778,0.065
1442705.556,0.065
1442708.333,0.065
1442711.111,0.075
1442713.889,0.075
1442716.667,0.085
1442719.444,0.085
1442722.222,0.06
1442725,0.05
1442727.778,0.06
1442730.556,0.06
1442733.333,0.045
1442736.111,0.04
1442738.889,0.015
1442741.667,0.005
1442744.444,0.01
1442747.222,0.005
1442750,-0.015
1442752.778,-0.035
1442755.556,-0.055
1442758.333,-0.065
1442761.111,-0.07
1442763.889,-0.08
1442766.667,-0.1
1442769.444,-0.11
1442772.222,-0.12
1442775,-0.13
1442777.778,-0.135
1442780.556,-0.135
1442783.333,-0.15
1442786.111,-0.155
1442788.889,-0.16
1442791.667,-0.165
1442794.444,-0.16
1442797.222,-0.16
1442800,-0.16
1442802.778,-0.17
1442805.556,-0.185
1442808.333,-0.185
1442811.111,-0.17
1442813.889,-0.17
1442816.667,-0.17
1442819.444,-0.18
1442822.222,-0.185
1442825,-0.18
1442827.778,-0.165
1442830.556,-0.17
1442833.333,-0.175
1442836.111,-0.18
1442838.889,-0.185
1442841.667,-0.185
1442844.444,-0.165
1442847.222,-0.16
1442850,-0.17
1442852.778,-0.175
1442855.556,-0.19
1442858.333,-0.185
1442861.111,-0.175
1442863.889,-0.17
1442866.667,-0.17
1442869.444,-0.17
1442872.222,-0.195
1442875,-0.18
1442877.778,-0.16
1442880.556,-0.165
1442883.333,-0.17
1442886.111,-0.18
1442888.889,-0.19
1442891.667,-0.19
1442894.444,-0.175
1442897.222,-0.17
1442900,-0.175
1442902.778,-0.185
1442905.556,-0.185
1442908.333,-0.19
1442911.111,-0.18
1442913.889,-0.175
1442916.667,-0.19
1442919.444,-0.19
1442922.222,-0.2
1442925,-0.185
1442927.778,-0.17
1442930.556,-0.175
1442933.333,-0.175
1442936.111,-0.19
1442938.889,-0.2
1442941.667,-0.195
1442944.444,-0.18
1442947.222,-0.17
1442950,-0.165
1442952.778,-0.18
1442955.556,-0.195
1442958.333,-0.195
1442961.111,-0.19
1442963.889,-0.185
1442966.667,-0.185
1442969.444,-0.185
1442972.222,-0.195
1442975,-0.195
1442977.778,-0.19
1442980.556,-0.18
1442983.333,-0.185
1442986.111,-0.2
1442988.889,-0.215
1442991.667,-0.21
1442994.444,-0.195
1442997.222,-0.195
1443000,-0.195
1443002.778,-0.21
1443005.556,-0.21
1443008.333,-0.2
1443011.111,-0.195
1443013.889,-0.195
1443016.667,-0.19
1443019.444,-0.205
1443022.222,-0.21
1443025,-0.21
1443027.778,-0.205
1443030.556,-0.19
1443033.333,-0.195
1443036.111,-0.2
1443038.889,-0.21
1443041.667,-0.205
1443044.444,-0.205
1443047.222,-0.2
1443050,-0.19
1443052.778,-0.2
1443055.556,-0.22
1443058.333,-0.205
1443061.111,-0.195
1443063.889,-0.185
1443066.667,-0.2
1443069.444,-0.21
1443072.222,-0.225
1443075,-0.215
1443077.778,-0.21
1443080.556,-0.21
1443083.333,-0.2
1443086.111,-0.215
1443088.889,-0.225
1443091.667,-0.225
1443094.444,-0.21
1443097.222,-0.21
1443100,-0.205
1443102.778,-0.215
1443105.556,-0.23
1443108.333,-0.225
1443111.111,-0.21
1443113.889,-0.205
1443116.667,-0.21
1443119.444,-0.215
1443122.222,-0.22
1443125,-0.225
1443127.778,-0.215
1443130.556,-0.205
1443133.333,-0.2
1443136.111,-0.205
1443138.889,-0.215
1443141.667,-0.22
1443144.444,-0.215
1443147.222,-0.205
1443150,-0.205
1443152.778,-0.21
1443155.556,-0.215
1443158.333,-0.215
1443161.111,-0.215
1443163.889,-0.205
1443166.667,-0.21
1443169.444,-0.21
1443172.222,-0.235
1443175,-0.235
1443177.778,-0.235
1443180.556,-0.22
1443183.333,-0.22
1443186.111,-0.225
1443188.889,-0.24
1443191.667,-0.23
1443194.444,-0.22
1443197.222,-0.215
1443200,-0.21
1443202.778,-0.22
1443205.556,-0.23
1443208.333,-0.23
1443211.111,-0.225
1443213.889,-0.205
1443216.667,-0.22
1443219.444,-0.225
1443222.222,-0.23
1443225,-0.235
1443227.778,-0.225
1443230.556,-0.21
1443233.333,-0.205
1443236.111,-0.225
1443238.889,-0.23
1443241.667,-0.225
1443244.444,-0.22
1443247.222,-0.215
1443250,-0.22
1443252.778,-0.225
1443255.556,-0.23
1443258.333,-0.22
1443261.111,-0.215
1443263.889,-0.215
1443266.667,-0.205
1443269.444,-0.21
1443272.222,-0.23
1443275,-0.23
1443277.778,-0.22
1443280.556,-0.21
1443283.333,-0.21
1443286.111,-0.215
1443288.889,-0.22
1443291.667,-0.23
1443294.444,-0.235
1443297.222,-0.225
1443300,-0.22
1443302.778,-0.21
1443305.556,-0.215
1443308.333,-0.21
1443311.111,-0.21
1443313.889,-0.2
1443316.667,-0.195
1443319.444,-0.205
1443322.222,-0.225
1443325,-0.225
1443327.778,-0.21
1443330.556,-0.2
1443333.333,-0.205
1443336.111,-0.21
1443338.889,-0.23
1443341.667,-0.215
1443344.444,-0.23
1443347.222,-0.23
1443350,-0.225
1443352.778,-0.225
1443355.556,-0.23
1443358.333,-0.225
1443361.111,-0.225
1443363.889,-0.21
1443366.667,-0.225
1443369.444,-0.225
1443372.222,-0.23
1443375,-0.22
1443377.778,-0.21
1443380.556,-0.21
1443383.333,-0.21
1443386.111,-0.225
1443388.889,-0.235
1443391.667,-0.225
1443394.444,-0.225
1443397.222,-0.215
1443400,-0.215
1443402.778,-0.22
1443405.556,-0.22
1443408.333,-0.2
1443411.111,-0.205
1443413.889,-0.19
1443416.667,-0.185
1443419.444,-0.175
1443422.222,-0.18
1443425,-0.175
1443427.778,-0.17
1443430.556,-0.15
1443433.333,-0.145
1443436.111,-0.15
1443438.889,-0.155
1443441.667,-0.135
1443444.444,-0.13
1443447.222,-0.12
1443450,-0.115
1443452.778,-0.115
1443455.556,-0.12
1443458.333,-0.11
1443461.111,-0.105
1443463.889,-0.1
1443466.667,-0.11
1443469.444,-0.145
1443472.222,-0.155
1443475,-0.15
1443477.778,-0.15
1443480.556,-0.15
1443483.333,-0.145
1443486.111,-0.165
1443488.889,-0.185
1443491.667,-0.195
1443494.444,-0.185
1443497.222,-0.18
1443500,-0.195
1443502.778,-0.215
1443505.556,-0.235
1443508.333,-0.24
1443511.111,-0.245
1443513.889,-0.24
1443516.667,-0.245
1443519.444,-0.255
1443522.222,-0.26
1443525,-0.26
1443527.778,-0.26
1443530.556,-0.245
1443533.333,-0.255
1443536.111,-0.265
1443538.889,-0.265
1443541.667,-0.27
1443544.444,-0.26
1443547.222,-0.245
1443550,-0.25
1443552.778,-0.255
1443555.556,-0.275
1443558.333,-0.275
1443561.111,-0.26
1443563.889,-0.26
1443566.667,-0.26
1443569.444,-0.26
1443572.222,-0.265
1443575,-0.27
1443577.778,-0.26
1443580.556,-0.25
1443583.333,-0.245
1443586.111,-0.27
1443588.889,-0.28
1443591.667,-0.275
1443594.444,-0.255
1443597.222,-0.255
1443600,-0.26
1443602.778,-0.26
1443605.556,-0.25
1443608.333,-0.245
1443611.111,-0.225
1443613.889,-0.195
1443616.667,-0.17
1443619.444,-0.16
1443622.222,-0.155
1443625,-0.12
1443627.778,-0.04
1443630.556,0.07
1443633.333,0.175
1443636.111,0.28
1443638.889,0.395
1443641.667,0.505
1443644.444,0.595
1443647.222,0.695
1443650,0.795
1443652.778,0.875
1443655.556,0.915
1443658.333,0.86
1443661.111,0.735
1443663.889,0.56
1443666.667,0.32
1443669.444,0.12
1443672.222,-0.06
1443675,-0.165
1443677.778,-0.265
1443680.556,-0.325
1443683.333,-0.335
1443686.111,-0.32
1443688.889,-0.285
1443691.667,-0.245
1443694.444,-0.235
1443697.222,-0.22
1443700,-0.235
1443702.778,-0.26
1443705.556,-0.26
1443708.333,-0.27
1443711.111,-0.27
1443713.889,-0.27
1443716.667,-0.275
1443719.444,-0.285
1443722.222,-0.295
1443725,-0.305
1443727.778,-0.275
1443730.556,-0.285
1443733.333,-0.285
1443736.111,-0.295
1443738.889,-0.305
1443741.667,-0.285
1443744.444,-0.28
1443747.222,-0.27
1443750,-0.275
1443752.778,-0.29
1443755.556,-0.285
1443758.333,-0.285
1443761.111,-0.28
1443763.889,-0.265
1443766.667,-0.275
1443769.444,-0.285
1443772.222,-0.285
1443775,-0.285
1443777.778,-0.265
1443780.556,-0.265
1443783.333,-0.265
1443786.111,-0.265
1443788.889,-0.28
1443791.667,-0.27
1443794.444,-0.255
1443797.222,-0.245
1443800,-0.245
1443802.778,-0.265
1443805.556,-0.26
1443808.333,-0.255
1443811.111,-0.245
1443813.889,-0.24
1443816.667,-0.24
1443819.444,-0.25
1443822.222,-0.255
1443825,-0.25
1443827.778,-0.23
1443830.556,-0.23
1443833.333,-0.23
1443836.111,-0.23
1443838.889,-0.235
1443841.667,-0.22
1443844.444,-0.21
1443847.222,-0.2
1443850,-0.2
1443852.778,-0.205
1443855.556,-0.21
1443858.333,-0.2
1443861.111,-0.185
1443863.889,-0.175
1443866.667,-0.165
1443869.444,-0.165
1443872.222,-0.175
1443875,-0.17
1443877.778,-0.145
1443880.556,-0.13
1443883.333,-0.13
1443886.111,-0.14
1443888.889,-0.14
1443891.667,-0.125
1443894.444,-0.105
1443897.222,-0.09
1443900,-0.09
1443902.778,-0.09
1443905.556,-0.1
1443908.333,-0.09
1443911.111,-0.075
1443913.889,-0.055
1443916.667,-0.045
1443919.444,-0.05
1443922.222,-0.06
1443925,-0.05
1443927.778,-0.03
1443930.556,-0.015
1443933.333,-0.01
1443936.111,-0.01
1443938.889,-0.015
1443941.667,-0.01
1443944.444,0.005
1443947.222,0.02
1443950,0.02
1443952.778,0.02
1443955.556,0
1443958.333,-0.01
1443961.111,0
1443963.889,0.005
1443966.667,-0.01
1443969.444,-0.02
1443972.222,-0.04
1443975,-0.06
1443977.778,-0.065
1443980.556,-0.075
1443983.333,-0.085
1443986.111,-0.11
1443988.889,-0.135
1443991.667,-0.145
1443994.444,-0.15
1443997.222,-0.15
1444000,-0.165
1444002.778,-0.185
1444005.556,-0.2
1444008.333,-0.205
1444011.111,-0.205
1444013.889,-0.2
1444016.667,-0.205
1444019.444,-0.225
1444022.222,-0.245
1444025,-0.24
1444027.778,-0.225
1444030.556,-0.225
1444033.333,-0.225
1444036.111,-0.24
1444038.889,-0.25
1444041.667,-0.25
1444044.444,-0.24
1444047.222,-0.225
1444050,-0.235
1444052.778,-0.245
1444055.556,-0.255
1444058.333,-0.245
1444061.111,-0.24
1444063.889,-0.225
1444066.667,-0.235
1444069.444,-0.245
1444072.222,-0.25
1444075,-0.245
1444077.778,-0.235
1444080.556,-0.23
1444083.333,-0.23
1444086.111,-0.235
1444088.889,-0.24
1444091.667,-0.245
1444094.444,-0.23
1444097.222,-0.225
1444100,-0.23
1444102.778,-0.23
1444105.556,-0.24
1444108.333,-0.24
1444111.111,-0.235
1444113.889,-0.22
1444116.667,-0.215
1444119.444,-0.235
1444122.222,-0.245
1444125,-0.24
1444127.778,-0.225
1444130.556,-0.225
1444133.333,-0.225
1444136.111,-0.215
1444138.889,-0.23
1444141.667,-0.235
1444144.444,-0.225
1444147.222,-0.215
1444150,-0.215
1444152.778,-0.22
1444155.556,-0.235
1444158.333,-0.22
1444161.111,-0.23
1444163.889,-0.22
1444166.667,-0.215
1444169.444,-0.22
1444172.222,-0.23
1444175,-0.24
1444177.778,-0.23
1444180.556,-0.215
1444183.333,-0.22
1444186.111,-0.225
1444188.889,-0.235
1444191.667,-0.23
1444194.444,-0.22
1444197.222,-0.215
1444200,-0.225
1444202.778,-0.23
1444205.556,-0.235
1444208.333,-0.23
1444211.111,-0.225
1444213.889,-0.21
1444216.667,-0.23
1444219.444,-0.235
1444222.222,-0.24
1444225,-0.235
1444227.778,-0.225
1444230.556,-0.215
1444233.333,-0.22
1444236.111,-0.23
1444238.889,-0.245
1444241.667,-0.23
1444244.444,-0.23
1444247.222,-0.225
1444250,-0.225
1444252.778,-0.245
1444255.556,-0.245
1444258.333,-0.235
1444261.111,-0.225
1444263.889,-0.225
1444266.667,-0.23
1444269.444,-0.235
1444272.222,-0.25
1444275,-0.23
1444277.778,-0.225
1444280.556,-0.225
1444283.333,-0.23
1444286.111,-0.23
1444288.889,-0.25
1444291.667,-0.24
1444294.444,-0.235
1444297.222,-0.225
1444300,-0.235
1444302.778,-0.23
1444305.556,-0.245
1444308.333,-0.235
1444311.111,-0.225
1444313.889,-0.22
1444316.667,-0.23
1444319.444,-0.24
1444322.222,-0.255
1444325,-0.23
1444327.778,-0.22
1444330.556,-0.225
1444333.333,-0.23
1444336.111,-0.24
1444338.889,-0.25
1444341.667,-0.235
1444344.444,-0.225
1444347.222,-0.22
1444350,-0.23
1444352.778,-0.24
1444355.556,-0.235
1444358.333,-0.24
1444361.111,-0.23
1444363.889,-0.225
1444366.667,-0.22
1444369.444,-0.23
1444372.222,-0.235
1444375,-0.23
1444377.778,-0.225
1444380.556,-0.22
1444383.333,-0.225
1444386.111,-0.225
1444388.889,-0.235
1444391.667,-0.225
1444394.444,-0.22
1444397.222,-0.215
1444400,-0.22
1444402.778,-0.225
1444405.556,-0.235
1444408.333,-0.23
1444411.111,-0.22
1444413.889,-0.215
1444416.667,-0.215
1444419.444,-0.225
1444422.222,-0.235
1444425,-0.22
1444427.778,-0.205
1444430.556,-0.21
1444433.333,-0.21
1444436.111,-0.23
1444438.889,-0.235
1444441.667,-0.215
1444444.444,-0.205
1444447.222,-0.205
1444450,-0.21
1444452.778,-0.205
1444455.556,-0.215
1444458.333,-0.215
1444461.111,-0.21
1444463.889,-0.2
1444466.667,-0.2
1444469.444,-0.215
1444472.222,-0.22
1444475,-0.205
1444477.778,-0.205
1444480.556,-0.2
1444483.333,-0.21
1444486.111,-0.21
1444488.889,-0.21
1444491.667,-0.205
1444494.444,-0.19
1444497.222,-0.18
1444500,-0.185
1444502.778,-0.18
1444505.556,-0.185
1444508.333,-0.175
1444511.111,-0.165
1444513.889,-0.15
1444516.667,-0.145
1444519.444,-0.145
1444522.222,-0.15
1444525,-0.135
1444527.778,-0.12
1444530.556,-0.11
1444533.333,-0.1
1444536.111,-0.1
1444538.889,-0.105
1444541.667,-0.095
1444544.444,-0.07
1444547.222,-0.07
1444550,-0.075
1444552.778,-0.065
1444555.556,-0.065
1444558.333,-0.065
1444561.111,-0.065
1444563.889,-0.08
1444566.667,-0.09
1444569.444,-0.1
1444572.222,-0.115
1444575,-0.11
1444577.778,-0.12
1444580.556,-0.12
1444583.333,-0.125
1444586.111,-0.135
1444588.889,-0.16
1444591.667,-0.155
1444594.444,-0.16
1444597.222,-0.165
1444600,-0.175
1444602.778,-0.19
1444605.556,-0.205
1444608.333,-0.2
1444611.111,-0.2
1444613.889,-0.195
1444616.667,-0.2
1444619.444,-0.215
1444622.222,-0.22
1444625,-0.21
1444627.778,-0.2
1444630.556,-0.2
1444633.333,-0.205
1444636.111,-0.22
1444638.889,-0.225
1444641.667,-0.215
1444644.444,-0.2
1444647.222,-0.2
1444650,-0.205
1444652.778,-0.205
1444655.556,-0.21
1444658.333,-0.205
1444661.111,-0.2
1444663.889,-0.2
1444666.667,-0.205
1444669.444,-0.205
1444672.222,-0.215
1444675,-0.21
1444677.778,-0.2
1444680.556,-0.185
1444683.333,-0.2
1444686.111,-0.195
1444688.889,-0.195
1444691.667,-0.185
1444694.444,-0.17
1444697.222,-0.15
1444700,-0.13
1444702.778,-0.115
1444705.556,-0.115
1444708.333,-0.09
1444711.111,-0.01
1444713.889,0.075
1444716.667,0.165
1444719.444,0.25
1444722.222,0.345
1444725,0.465
1444727.778,0.575
1444730.556,0.67
1444733.333,0.765
1444736.111,0.855
1444738.889,0.905
1444741.667,0.89
1444744.444,0.79
1444747.222,0.625
1444750,0.42
1444752.778,0.215
1444755.556,0.065
1444758.333,-0.045
1444761.111,-0.105
1444763.889,-0.15
1444766.667,-0.17
1444769.444,-0.165
1444772.222,-0.15
1444775,-0.13
1444777.778,-0.135
1444780.556,-0.15
1444783.333,-0.155
1444786.111,-0.175
1444788.889,-0.185
1444791.667,-0.185
1444794.444,-0.19
1444797.222,-0.18
1444800,-0.19
1444802.778,-0.205
1444805.556,-0.22
1444808.333,-0.21
1444811.111,-0.2
1444813.889,-0.19
1444816.667,-0.2
1444819.444,-0.205
1444822.222,-0.22
1444825,-0.2
1444827.778,-0.2
1444830.556,-0.205
1444833.333,-0.205
1444836.111,-0.21
1444838.889,-0.215
1444841.667,-0.2
1444844.444,-0.19
1444847.222,-0.19
1444850,-0.185
1444852.778,-0.195
1444855.556,-0.195
1444858.333,-0.195
1444861.111,-0.185
1444863.889,-0.17
1444866.667,-0.18
1444869.444,-0.185
1444872.222,-0.185
1444875,-0.175
1444877.778,-0.165
1444880.556,-0.165
1444883.333,-0.165
1444886.111,-0.17
1444888.889,-0.175
1444891.667,-0.17
1444894.444,-0.15
1444897.222,-0.15
1444900,-0.145
1444902.778,-0.155
1444905.556,-0.155
1444908.333,-0.145
1444911.111,-0.135
1444913.889,-0.125
1444916.667,-0.125
1444919.444,-0.13
1444922.222,-0.13
1444925,-0.11
1444927.778,-0.11
1444930.556,-0.09
1444933.333,-0.1
1444936.111,-0.095
1444938.889,-0.1
1444941.667,-0.09
1444944.444,-0.07
1444947.222,-0.06
1444950,-0.06
1444952.778,-0.065
1444955.556,-0.06
1444958.333,-0.05
1444961.111,-0.035
1444963.889,-0.025
1444966.667,-0.015
1444969.444,-0.02
1444972.222,-0.015
1444975,0
1444977.778,0.015
1444980.556,0.025
1444983.333,0.025
1444986.111,0.03
1444988.889,0.03
1444991.667,0.04
1444994.444,0.05
1444997.222,0.06
1445000,0.07
1445002.778,0.06
1445005.556,0.065
1445008.333,0.085
1445011.111,0.095
1445013.889,0.095
1445016.667,0.1
1445019.444,0.09
1445022.222,0.085
1445025,0.085
1445027.778,0.09
1445030.556,0.095
1445033.333,0.085
1445036.111,0.055
1445038.889,0.045
1445041.667,0.025
1445044.444,0.03
1445047.222,0.015
1445050,0
1445052.778,-0.02
1445055.556,-0.025
1445058.333,-0.035
1445061.111,-0.04
1445063.889,-0.06
1445066.667,-0.075
1445069.444,-0.105
1445072.222,-0.11
1445075,-0.105
1445077.778,-0.11
1445080.556,-0.115
1445083.333,-0.125
1445086.111,-0.14
1445088.889,-0.15
1445091.667,-0.15
1445094.444,-0.145
1445097.222,-0.145
1445100,-0.155
1445102.778,-0.165
1445105.556,-0.175
1445108.333,-0.17
1445111.111,-0.165
1445113.889,-0.165
1445116.667,-0.16
1445119.444,-0.17
1445122.222,-0.175
1445125,-0.18
1445127.778,-0.17
1445130.556,-0.165
1445133.333,-0.16
1445136.111,-0.175
1445138.889,-0.18
1445141.667,-0.185
1445144.444,-0.175
1445147.222,-0.165
1445150,-0.18
1445152.778,-0.18
1445155.556,-0.19
1445158.333,-0.185
1445161.111,-0.165
1445163.889,-0.17
1445166.667,-0.18
1445169.444,-0.18
1445172.222,-0.185
1445175,-0.175
1445177.778,-0.175
1445180.556,-0.175
1445183.333,-0.17
1445186.111,-0.18
1445188.889,-0.19
1445191.667,-0.18
1445194.444,-0.17
1445197.222,-0.16
1445200,-0.17
1445202.778,-0.175
1445205.556,-0.19
1445208.333,-0.185
1445211.111,-0.175
1445213.889,-0.175
1445216.667,-0.17
1445219.444,-0.185
1445222.222,-0.19
1445225,-0.19
1445227.778,-0.185
1445230.556,-0.18
1445233.333,-0.185
1445236.111,-0.2
1445238.889,-0.195
1445241.667,-0.19
1445244.444,-0.18
1445247.222,-0.18
1445250,-0.19
1445252.778,-0.19
1445255.556,-0.21
1445258.333,-0.2
1445261.111,-0.19
1445263.889,-0.195
1445266.667,-0.185
1445269.444,-0.2
1445272.222,-0.21
1445275,-0.205
1445277.778,-0.195
1445280.556,-0.19
1445283.333,-0.195
1445286.111,-0.21
1445288.889,-0.225
1445291.667,-0.22
1445294.444,-0.215
1445297.222,-0.19
1445300,-0.195
1445302.778,-0.215
1445305.556,-0.225
1445308.333,-0.21
1445311.111,-0.205
1445313.889,-0.2
1445316.667,-0.205
1445319.444,-0.215
1445322.222,-0.225
1445325,-0.2
1445327.778,-0.21
1445330.556,-0.2
1445333.333,-0.21
1445336.111,-0.215
1445338.889,-0.225
1445341.667,-0.215
1445344.444,-0.215
1445347.222,-0.215
1445350,-0.21
1445352.778,-0.22
1445355.556,-0.23
1445358.333,-0.22
1445361.111,-0.215
1445363.889,-0.21
1445366.667,-0.215
1445369.444,-0.21
1445372.222,-0.23
1445375,-0.225
1445377.778,-0.215
1445380.556,-0.205
1445383.333,-0.205
1445386.111,-0.22
1445388.889,-0.235
1445391.667,-0.23
1445394.444,-0.225
1445397.222,-0.215
1445400,-0.22
1445402.778,-0.235
1445405.556,-0.24
1445408.333,-0.23
1445411.111,-0.23
1445413.889,-0.215
1445416.667,-0.22
1445419.444,-0.235
1445422.222,-0.24
1445425,-0.235
1445427.778,-0.23
1445430.556,-0.225
1445433.333,-0.23
1445436.111,-0.24
1445438.889,-0.25
1445441.667,-0.235
1445444.444,-0.22
1445447.222,-0.22
1445450,-0.23
1445452.778,-0.23
1445455.556,-0.245
1445458.333,-0.245
1445461.111,-0.23
1445463.889,-0.23
1445466.667,-0.235
1445469.444,-0.245
1445472.222,-0.25
1445475,-0.24
1445477.778,-0.23
1445480.556,-0.225
1445483.333,-0.23
1445486.111,-0.245
1445488.889,-0.25
1445491.667,-0.245
1445494.444,-0.235
1445497.222,-0.22
1445500,-0.23
1445502.778,-0.24
1445505.556,-0.255
1445508.333,-0.245
1445511.111,-0.235
1445513.889,-0.235
1445516.667,-0.23
1445519.444,-0.245
1445522.222,-0.25
1445525,-0.245
1445527.778,-0.24
1445530.556,-0.23
1445533.333,-0.235
1445536.111,-0.25
1445538.889,-0.26
1445541.667,-0.25
1445544.444,-0.255
1445547.222,-0.235
1445550,-0.24
1445552.778,-0.25
1445555.556,-0.255
1445558.333,-0.255
1445561.111,-0.245
1445563.889,-0.23
1445566.667,-0.245
1445569.444,-0.25
1445572.222,-0.265
1445575,-0.26
1445577.778,-0.245
1445580.556,-0.24
1445583.333,-0.24
1445586.111,-0.24
1445588.889,-0.255
1445591.667,-0.25
1445594.444,-0.24
1445597.222,-0.235
1445600,-0.24
1445602.778,-0.245
1445605.556,-0.26
1445608.333,-0.255
1445611.111,-0.255
1445613.889,-0.25
1445616.667,-0.245
1445619.444,-0.25
1445622.222,-0.255
1445625,-0.255
1445627.778,-0.25
1445630.556,-0.25
1445633.333,-0.245
1445636.111,-0.255
1445638.889,-0.26
1445641.667,-0.265
1445644.444,-0.25
1445647.222,-0.245
1445650,-0.235
1445652.778,-0.25
1445655.556,-0.255
1445658.333,-0.265
1445661.111,-0.26
1445663.889,-0.255
1445666.667,-0.245
1445669.444,-0.25
1445672.222,-0.265
1445675,-0.265
1445677.778,-0.255
1445680.556,-0.255
1445683.333,-0.25
1445686.111,-0.255
1445688.889,-0.26
1445691.667,-0.265
1445694.444,-0.26
1445697.222,-0.25
1445700,-0.25
1445702.778,-0.25
1445705.556,-0.26
1445708.333,-0.255
1445711.111,-0.24
1445713.889,-0.235
1445716.667,-0.22
1445719.444,-0.22
1445722.222,-0.225
1445725,-0.21
1445727.778,-0.205
1445730.556,-0.195
1445733.333,-0.185
1445736.111,-0.185
1445738.889,-0.18
1445741.667,-0.17
1445744.444,-0.155
1445747.222,-0.15
1445750,-0.16
1445752.778,-0.15
1445755.556,-0.15
1445758.333,-0.14
1445761.111,-0.14
1445763.889,-0.15
1445766.667,-0.165
1445769.444,-0.175
1445772.222,-0.185
1445775,-0.185
1445777.778,-0.195
1445780.556,-0.19
1445783.333,-0.2
1445786.111,-0.22
1445788.889,-0.225
1445791.667,-0.235
1445794.444,-0.23
1445797.222,-0.24
1445800,-0.255
1445802.778,-0.275
1445805.556,-0.29
1445808.333,-0.295
1445811.111,-0.29
1445813.889,-0.285
1445816.667,-0.29
1445819.444,-0.305
1445822.222,-0.315
1445825,-0.31
1445827.778,-0.305
1445830.556,-0.295
1445833.333,-0.295
1445836.111,-0.3
1445838.889,-0.31
1445841.667,-0.32
1445844.444,-0.31
1445847.222,-0.305
1445850,-0.305
1445852.778,-0.315
1445855.556,-0.32
1445858.333,-0.32
1445861.111,-0.305
1445863.889,-0.3
1445866.667,-0.295
1445869.444,-0.305
1445872.222,-0.32
1445875,-0.31
1445877.778,-0.295
1445880.556,-0.295
1445883.333,-0.295
1445886.111,-0.295
1445888.889,-0.295
1445891.667,-0.265
1445894.444,-0.225
1445897.222,-0.195
1445900,-0.195
1445902.778,-0.17
1445905.556,-0.115
1445908.333,0
1445911.111,0.135
1445913.889,0.27
1445916.667,0.385
1445919.444,0.49
1445922.222,0.585
1445925,0.695
1445927.778,0.82
1445930.556,0.915
1445933.333,0.915
1445936.111,0.795
1445938.889,0.585
1445941.667,0.315
1445944.444,0.07
1445947.222,-0.105
1445950,-0.235
1445952.778,-0.345
1445955.556,-0.405
1445958.333,-0.395
1445961.111,-0.335
1445963.889,-0.29
1445966.667,-0.28
1445969.444,-0.285
1445972.222,-0.305
1445975,-0.305
1445977.778,-0.315
1445980.556,-0.31
1445983.333,-0.315
1445986.111,-0.33
1445988.889,-0.335
1445991.667,-0.33
1445994.444,-0.325
1445997.222,-0.32
1446000,-0.335
1446002.778,-0.335
1446005.556,-0.345
1446008.333,-0.335
1446011.111,-0.335
1446013.889,-0.325
1446016.667,-0.325
1446019.444,-0.34
1446022.222,-0.345
1446025,-0.325
1446027.778,-0.325
1446030.556,-0.32
1446033.333,-0.32
1446036.111,-0.32
1446038.889,-0.33
1446041.667,-0.32
1446044.444,-0.32
1446047.222,-0.315
1446050,-0.31
1446052.778,-0.32
1446055.556,-0.325
1446058.333,-0.315
1446061.111,-0.315
1446063.889,-0.3
1446066.667,-0.305
1446069.444,-0.3
1446072.222,-0.31
1446075,-0.305
1446077.778,-0.295
1446080.556,-0.29
1446083.333,-0.285
1446086.111,-0.29
1446088.889,-0.29
1446091.667,-0.29
1446094.444,-0.275
1446097.222,-0.27
1446100,-0.265
1446102.778,-0.27
1446105.556,-0.275
1446108.333,-0.26
1446111.111,-0.24
1446113.889,-0.23
1446116.667,-0.23
1446119.444,-0.23
1446122.222,-0.245
1446125,-0.22
1446127.778,-0.22
1446130.556,-0.205
1446133.333,-0.2
1446136.111,-0.2
1446138.889,-0.2
1446141.667,-0.18
1446144.444,-0.165
1446147.222,-0.155
1446150,-0.15
1446152.778,-0.15
1446155.556,-0.15
1446158.333,-0.125
1446161.111,-0.11
1446163.889,-0.095
1446166.667,-0.095
1446169.444,-0.09
1446172.222,-0.085
1446175,-0.07
1446177.778,-0.045
1446180.556,-0.035
1446183.333,-0.03
1446186.111,-0.035
1446188.889,-0.04
1446191.667,-0.035
1446194.444,-0.015
1446197.222,-0.01
1446200,-0.035
1446202.778,-0.04
1446205.556,-0.055
1446208.333,-0.04
1446211.111,-0.04
1446213.889,-0.05
1446216.667,-0.07
1446219.444,-0.1
1446222.222,-0.12
1446225,-0.13
1446227.778,-0.13
1446230.556,-0.15
1446233.333,-0.155
1446236.111,-0.18
1446238.889,-0.205
1446241.667,-0.205
1446244.444,-0.215
1446247.222,-0.215
1446250,-0.23
1446252.778,-0.245
1446255.556,-0.265
1446258.333,-0.265
1446261.111,-0.26
1446263.889,-0.255
1446266.667,-0.27
1446269.444,-0.28
1446272.222,-0.285
1446275,-0.285
1446277.778,-0.285
1446280.556,-0.28
1446283.333,-0.29
1446286.111,-0.295
1446288.889,-0.3
1446291.667,-0.295
1446294.444,-0.285
1446297.222,-0.29
1446300,-0.29
1446302.778,-0.29
1446305.556,-0.3
1446308.333,-0.29
1446311.111,-0.285
1446313.889,-0.28
1446316.667,-0.3
1446319.444,-0.29
1446322.222,-0.29
1446325,-0.29
1446327.778,-0.285
1446330.556,-0.285
1446333.333,-0.285
1446336.111,-0.29
1446338.889,-0.295
1446341.667,-0.285
1446344.444,-0.285
1446347.222,-0.275
1446350,-0.28
1446352.778,-0.27
1446355.556,-0.275
1446358.333,-0.275
1446361.111,-0.27
1446363.889,-0.26
1446366.667,-0.265
1446369.444,-0.28
1446372.222,-0.285
1446375,-0.265
1446377.778,-0.265
1446380.556,-0.26
1446383.333,-0.26
1446386.111,-0.265
1446388.889,-0.275
1446391.667,-0.275
1446394.444,-0.265
1446397.222,-0.26
1446400,-0.27
1446402.778,-0.265
1446405.556,-0.26
1446408.333,-0.255
1446411.111,-0.245
1446413.889,-0.255
1446416.667,-0.25
1446419.444,-0.26
1446422.222,-0.265
1446425,-0.265
1446427.778,-0.26
1446430.556,-0.26
1446433.333,-0.255
1446436.111,-0.26
1446438.889,-0.28
1446441.667,-0.265
1446444.444,-0.265
1446447.222,-0.26
1446450,-0.26
1446452.778,-0.275
1446455.556,-0.27
1446458.333,-0.27
1446461.111,-0.27
1446463.889,-0.255
1446466.667,-0.27
1446469.444,-0.26
1446472.222,-0.275
1446475,-0.26
1446477.778,-0.265
1446480.556,-0.255
1446483.333,-0.26
1446486.111,-0.26
1446488.889,-0.275
1446491.667,-0.27
1446494.444,-0.265
1446497.222,-0.26
1446500,-0.26
1446502.778,-0.265
1446505.556,-0.27
1446508.333,-0.265
1446511.111,-0.27
1446513.889,-0.27
1446516.667,-0.265
1446519.444,-0.27
1446522.222,-0.275
1446525,-0.27
1446527.778,-0.27
1446530.556,-0.265
1446533.333,-0.27
1446536.111,-0.27
1446538.889,-0.28
1446541.667,-0.27
1446544.444,-0.265
1446547.222,-0.265
1446550,-0.27
1446552.778,-0.265
1446555.556,-0.275
1446558.333,-0.28
1446561.111,-0.28
1446563.889,-0.25
1446566.667,-0.26
1446569.444,-0.27
1446572.222,-0.27
1446575,-0.26
1446577.778,-0.255
1446580.556,-0.255
1446583.333,-0.245
1446586.111,-0.255
1446588.889,-0.255
1446591.667,-0.265
1446594.444,-0.255
1446597.222,-0.25
1446600,-0.25
1446602.778,-0.255
1446605.556,-0.265
1446608.333,-0.255
1446611.111,-0.245
1446613.889,-0.245
1446616.667,-0.245
1446619.444,-0.26
1446622.222,-0.265
1446625,-0.255
1446627.778,-0.245
1446630.556,-0.245
1446633.333,-0.25
1446636.111,-0.25
1446638.889,-0.255
1446641.667,-0.26
1446644.444,-0.245
1446647.222,-0.255
1446650,-0.255
1446652.778,-0.26
1446655.556,-0.26
1446658.333,-0.25
1446661.111,-0.255
1446663.889,-0.25
1446666.667,-0.25
1446669.444,-0.255
1446672.222,-0.265
1446675,-0.25
1446677.778,-0.255
1446680.556,-0.24
1446683.333,-0.245
1446686.111,-0.25
1446688.889,-0.265
1446691.667,-0.245
1446694.444,-0.24
1446697.222,-0.24
1446700,-0.235
1446702.778,-0.235
1446705.556,-0.26
1446708.333,-0.245
1446711.111,-0.24
1446713.889,-0.23
1446716.667,-0.245
1446719.444,-0.245
1446722.222,-0.255
1446725,-0.245
1446727.778,-0.235
1446730.556,-0.225
1446733.333,-0.235
1446736.111,-0.24
1446738.889,-0.245
1446741.667,-0.235
1446744.444,-0.235
1446747.222,-0.235
1446750,-0.225
1446752.778,-0.235
1446755.556,-0.24
1446758.333,-0.23
1446761.111,-0.22
1446763.889,-0.215
1446766.667,-0.225
1446769.444,-0.215
1446772.222,-0.215
1446775,-0.21
1446777.778,-0.2
1446780.556,-0.19
1446783.333,-0.18
1446786.111,-0.175
1446788.889,-0.16
1446791.667,-0.15
1446794.444,-0.135
1446797.222,-0.13
1446800,-0.125
1446802.778,-0.13
1446805.556,-0.12
1446808.333,-0.115
1446811.111,-0.115
1446813.889,-0.105
1446816.667,-0.105
1446819.444,-0.085
1446822.222,-0.1
1446825,-0.105
1446827.778,-0.105
1446830.556,-0.115
1446833.333,-0.125
1446836.111,-0.13
1446838.889,-0.145
1446841.667,-0.14
1446844.444,-0.145
1446847.222,-0.145
1446850,-0.155
1446852.778,-0.175
1446855.556,-0.2
1446858.333,-0.195
1446861.111,-0.2
1446863.889,-0.21
1446866.667,-0.215
1446869.444,-0.22
1446872.222,-0.23
1446875,-0.225
1446877.778,-0.22
1446880.556,-0.22
1446883.333,-0.225
1446886.111,-0.23
1446888.889,-0.24
1446891.667,-0.24
1446894.444,-0.225
1446897.222,-0.22
1446900,-0.225
1446902.778,-0.24
1446905.556,-0.235
1446908.333,-0.235
1446911.111,-0.23
1446913.889,-0.22
1446916.667,-0.23
1446919.444,-0.23
1446922.222,-0.24
1446925,-0.23
1446927.778,-0.225
1446930.556,-0.21
1446933.333,-0.225
1446936.111,-0.23
1446938.889,-0.24
1446941.667,-0.22
1446944.444,-0.205
1446947.222,-0.19
1446950,-0.19
1446952.778,-0.175
1446955.556,-0.16
1446958.333,-0.125
1446961.111,-0.085
1446963.889,-0.035
1446966.667,0.045
1446969.444,0.15
1446972.222,0.26
1446975,0.39
1446977.778,0.53
1446980.556,0.645
1446983.333,0.75
1446986.111,0.845
1446988.889,0.92
1446991.667,0.94
1446994.444,0.845
1446997.222,0.68
1447000,0.46
1447002.778,0.255
1447005.556,0.085
1447008.333,-0.045
1447011.111,-0.11
1447013.889,-0.16
1447016.667,-0.17
1447019.444,-0.155
1447022.222,-0.14
1447025,-0.13
1447027.778,-0.13
1447030.556,-0.165
1447033.333,-0.18
1447036.111,-0.195
1447038.889,-0.21
1447041.667,-0.2
1447044.444,-0.2
1447047.222,-0.195
1447050,-0.2
1447052.778,-0.225
1447055.556,-0.23
1447058.333,-0.215
1447061.111,-0.21
1447063.889,-0.195
1447066.667,-0.22
1447069.444,-0.215
1447072.222,-0.215
1447075,-0.21
1447077.778,-0.215
1447080.556,-0.205
1447083.333,-0.21
1447086.111,-0.205
1447088.889,-0.215
1447091.667,-0.215
1447094.444,-0.205
1447097.222,-0.19
1447100,-0.195
1447102.778,-0.2
1447105.556,-0.2
1447108.333,-0.195
1447111.111,-0.185
1447113.889,-0.17
1447116.667,-0.18
1447119.444,-0.18
1447122.222,-0.19
1447125,-0.18
1447127.778,-0.17
1447130.556,-0.165
1447133.333,-0.165
1447136.111,-0.175
1447138.889,-0.17
1447141.667,-0.155
1447144.444,-0.15
1447147.222,-0.14
1447150,-0.14
1447152.778,-0.15
1447155.556,-0.145
1447158.333,-0.14
1447161.111,-0.125
1447163.889,-0.125
1447166.667,-0.125
1447169.444,-0.12
1447172.222,-0.115
1447175,-0.105
1447177.778,-0.085
1447180.556,-0.075
1447183.333,-0.075
1447186.111,-0.07
1447188.889,-0.07
1447191.667,-0.055
1447194.444,-0.04
1447197.222,-0.025
1447200,-0.015
1447202.778,-0.015
1447205.556,-0.02
1447208.333,0.01
1447211.111,0.025
1447213.889,0.035
1447216.667,0.03
1447219.444,0.035
1447222.222,0.035
1447225,0.055
1447227.778,0.06
1447230.556,0.065
1447233.333,0.08
1447236.111,0.09
1447238.889,0.095
1447241.667,0.105
1447244.444,0.115
1447247.222,0.13
1447250,0.12
1447252.778,0.12
1447255.556,0.125
1447258.333,0.12
1447261.111,0.12
1447263.889,0.11
1447266.667,0.095
1447269.444,0.08
1447272.222,0.05
1447275,0.05
1447277.778,0.03
1447280.556,0.02
1447283.333,0.005
1447286.111,0
1447288.889,-0.03
1447291.667,-0.055
1447294.444,-0.05
1447297.222,-0.06
1447300,-0.075
1447302.778,-0.09
1447305.556,-0.105
1447308.333,-0.105
1447311.111,-0.105
1447313.889,-0.105
1447316.667,-0.11
1447319.444,-0.12
1447322.222,-0.13
1447325,-0.125
1447327.778,-0.125
1447330.556,-0.12
1447333.333,-0.125
1447336.111,-0.135
1447338.889,-0.135
1447341.667,-0.13
1447344.444,-0.125
1447347.222,-0.125
1447350,-0.13
1447352.778,-0.13
1447355.556,-0.145
1447358.333,-0.13
1447361.111,-0.13
1447363.889,-0.135
1447366.667,-0.14
1447369.444,-0.15
1447372.222,-0.14
1447375,-0.145
1447377.778,-0.14
1447380.556,-0.13
1447383.333,-0.135
1447386.111,-0.14
1447388.889,-0.14
1447391.667,-0.135
1447394.444,-0.135
1447397.222,-0.13
1447400,-0.135
1447402.778,-0.145
1447405.556,-0.15
1447408.333,-0.145
1447411.111,-0.155
1447413.889,-0.135
1447416.667,-0.135
1447419.444,-0.145
1447422.222,-0.155
1447425,-0.145
1447427.778,-0.135
1447430.556,-0.135
1447433.333,-0.135
1447436.111,-0.155
1447438.889,-0.16
1447441.667,-0.15
1447444.444,-0.145
1447447.222,-0.135
1447450,-0.135
1447452.778,-0.15
1447455.556,-0.155
1447458.333,-0.155
1447461.111,-0.15
1447463.889,-0.15
1447466.667,-0.14
1447469.444,-0.145
1447472.222,-0.15
1447475,-0.15
1447477.778,-0.145
1447480.556,-0.14
1447483.333,-0.14
1447486.111,-0.155
1447488.889,-0.155
1447491.667,-0.155
1447494.444,-0.145
1447497.222,-0.145
1447500,-0.155
1447502.778,-0.15
1447505.556,-0.155
1447508.333,-0.16
1447511.111,-0.14
1447513.889,-0.14
1447516.667,-0.15
1447519.444,-0.16
1447522.222,-0.165
1447525,-0.155
1447527.778,-0.15
1447530.556,-0.15
1447533.333,-0.15
1447536.111,-0.155
1447538.889,-0.165
1447541.667,-0.155
1447544.444,-0.145
1447547.222,-0.14
1447550,-0.14
1447552.778,-0.155
1447555.556,-0.165
1447558.333,-0.16
1447561.111,-0.15
1447563.889,-0.15
1447566.667,-0.155
1447569.444,-0.16
1447572.222,-0.16
1447575,-0.155
1447577.778,-0.155
1447580.556,-0.16
1447583.333,-0.16
1447586.111,-0.17
1447588.889,-0.17
1447591.667,-0.175
1447594.444,-0.15
1447597.222,-0.16
1447600,-0.165
1447602.778,-0.17
1447605.556,-0.18
1447608.333,-0.17
1447611.111,-0.16
1447613.889,-0.16
1447616.667,-0.16
1447619.444,-0.175
1447622.222,-0.17
1447625,-0.175
1447627.778,-0.175
1447630.556,-0.16
1447633.333,-0.17
1447636.111,-0.18
1447638.889,-0.185
1447641.667,-0.18
1447644.444,-0.175
1447647.222,-0.165
1447650,-0.17
1447652.778,-0.175
1447655.556,-0.19
1447658.333,-0.165
1447661.111,-0.165
1447663.889,-0.16
1447666.667,-0.18
1447669.444,-0.18
1447672.222,-0.19
1447675,-0.18
1447677.778,-0.17
1447680.556,-0.17
1447683.333,-0.18
1447686.111,-0.19
1447688.889,-0.185
1447691.667,-0.175
1447694.444,-0.175
1447697.222,-0.17
1447700,-0.17
1447702.778,-0.18
1447705.556,-0.18
1447708.333,-0.17
1447711.111,-0.16
1447713.889,-0.175
1447716.667,-0.18
1447719.444,-0.19
1447722.222,-0.185
1447725,-0.17
1447727.778,-0.17
1447730.556,-0.18
1447733.333,-0.175
1447736.111,-0.18
1447738.889,-0.185
1447741.667,-0.175
1447744.444,-0.165
1447747.222,-0.175
1447750,-0.18
1447752.778,-0.185
1447755.556,-0.18
1447758.333,-0.17
1447761.111,-0.165
1447763.889,-0.17
1447766.667,-0.175
1447769.444,-0.19
1447772.222,-0.18
1447775,-0.175
1447777.778,-0.165
1447780.556,-0.17
1447783.333,-0.18
1447786.111,-0.19
1447788.889,-0.19
1447791.667,-0.175
1447794.444,-0.18
1447797.222,-0.18
1447800,-0.19
1447802.778,-0.19
1447805.556,-0.18
1447808.333,-0.175
1447811.111,-0.18
1447813.889,-0.17
1447816.667,-0.18
1447819.444,-0.19
1447822.222,-0.175
1447825,-0.175
1447827.778,-0.185
1447830.556,-0.175
1447833.333,-0.175
1447836.111,-0.19
1447838.889,-0.19
1447841.667,-0.185
1447844.444,-0.18
1447847.222,-0.185
1447850,-0.185
1447852.778,-0.195
1447855.556,-0.185
1447858.333,-0.19
1447861.111,-0.19
1447863.889,-0.185
1447866.667,-0.195
1447869.444,-0.195
1447872.222,-0.205
1447875,-0.21
1447877.778,-0.2
1447880.556,-0.2
1447883.333,-0.195
1447886.111,-0.205
1447888.889,-0.21
1447891.667,-0.2
1447894.444,-0.205
1447897.222,-0.195
1447900,-0.185
1447902.778,-0.205
1447905.556,-0.21
1447908.333,-0.2
1447911.111,-0.19
1447913.889,-0.175
1447916.667,-0.175
1447919.444,-0.17
1447922.222,-0.175
1447925,-0.16
1447927.778,-0.145
1447930.556,-0.135
1447933.333,-0.13
1447936.111,-0.14
1447938.889,-0.14
1447941.667,-0.12
1447944.444,-0.105
1447947.222,-0.09
1447950,-0.085
1447952.778,-0.11
1447955.556,-0.095
1447958.333,-0.095
1447961.111,-0.08
1447963.889,-0.065
1447966.667,-0.07
1447969.444,-0.085
1447972.222,-0.095
1447975,-0.1
1447977.778,-0.11
1447980.556,-0.1
1447983.333,-0.115
1447986.111,-0.13
1447988.889,-0.15
1447991.667,-0.16
1447994.444,-0.16
1447997.222,-0.17
1448000,-0.165
1448002.778,-0.19
1448005.556,-0.205
1448008.333,-0.215
1448011.111,-0.22
1448013.889,-0.225
1448016.667,-0.225
1448019.444,-0.235
1448022.222,-0.245
1448025,-0.26
1448027.778,-0.25
1448030.556,-0.25
1448033.333,-0.245
1448036.111,-0.25
1448038.889,-0.25
1448041.667,-0.25
1448044.444,-0.24
1448047.222,-0.24
1448050,-0.235
1448052.778,-0.235
1448055.556,-0.245
1448058.333,-0.24
1448061.111,-0.245
1448063.889,-0.23
1448066.667,-0.235
1448069.444,-0.25
1448072.222,-0.255
1448075,-0.24
1448077.778,-0.225
1448080.556,-0.235
1448083.333,-0.24
1448086.111,-0.245
1448088.889,-0.245
1448091.667,-0.24
1448094.444,-0.235
1448097.222,-0.23
1448100,-0.23
1448102.778,-0.23
1448105.556,-0.215
1448108.333,-0.21
1448111.111,-0.175
1448113.889,-0.16
1448116.667,-0.14
1448119.444,-0.11
1448122.222,-0.065
1448125,0.035
1448127.778,0.135
1448130.556,0.245
1448133.333,0.36
1448136.111,0.465
1448138.889,0.56
1448141.667,0.655
1448144.444,0.755
1448147.222,0.845
1448150,0.925
1448152.778,0.92
1448155.556,0.83
1448158.333,0.675
1448161.111,0.47
1448163.889,0.26
1448166.667,0.06
1448169.444,-0.085
1448172.222,-0.185
1448175,-0.265
1448177.778,-0.3
1448180.556,-0.31
1448183.333,-0.28
1448186.111,-0.255
1448188.889,-0.24
1448191.667,-0.215
1448194.444,-0.21
1448197.222,-0.225
1448200,-0.225
1448202.778,-0.25
1448205.556,-0.26
1448208.333,-0.255
1448211.111,-0.255
1448213.889,-0.245
1448216.667,-0.26
1448219.444,-0.27
1448222.222,-0.27
1448225,-0.265
1448227.778,-0.255
1448230.556,-0.265
1448233.333,-0.275
1448236.111,-0.28
1448238.889,-0.28
1448241.667,-0.265
1448244.444,-0.27
1448247.222,-0.265
1448250,-0.27
1448252.778,-0.28
1448255.556,-0.285
1448258.333,-0.275
1448261.111,-0.265
1448263.889,-0.265
1448266.667,-0.27
1448269.444,-0.28
1448272.222,-0.275
1448275,-0.26
1448277.778,-0.26
1448280.556,-0.25
1448283.333,-0.255
1448286.111,-0.26
1448288.889,-0.27
1448291.667,-0.26
1448294.444,-0.25
1448297.222,-0.25
1448300,-0.26
1448302.778,-0.255
1448305.556,-0.255
1448308.333,-0.24
1448311.111,-0.235
1448313.889,-0.225
1448316.667,-0.235
1448319.444,-0.24
1448322.222,-0.24
1448325,-0.225
1448327.778,-0.205
1448330.556,-0.205
1448333.333,-0.21
1448336.111,-0.21
1448338.889,-0.21
1448341.667,-0.2
1448344.444,-0.19
1448347.222,-0.19
1448350,-0.195
1448352.778,-0.195
1448355.556,-0.195
1448358.333,-0.185
1448361.111,-0.17
1448363.889,-0.17
1448366.667,-0.16
1448369.444,-0.165
1448372.222,-0.17
1448375,-0.145
1448377.778,-0.135
1448380.556,-0.125
1448383.333,-0.115
1448386.111,-0.12
1448388.889,-0.115
1448391.667,-0.105
1448394.444,-0.08
1448397.222,-0.08
1448400,-0.07
1448402.778,-0.08
1448405.556,-0.07
1448408.333,-0.055
1448411.111,-0.035
1448413.889,-0.03
1448416.667,-0.025
1448419.444,-0.025
1448422.222,-0.02
1448425,-0.01
1448427.778,-0.005
1448430.556,0.015
1448433.333,0.01
1448436.111,0.02
1448438.889,0.02
1448441.667,0.03
1448444.444,0.03
1448447.222,0.025
1448450,0.035
1448452.778,0.02
1448455.556,0.005
1448458.333,0
1448461.111,0
1448463.889,-0.015
1448466.667,-0.02
1448469.444,-0.05
1448472.222,-0.065
1448475,-0.08
1448477.778,-0.08
1448480.556,-0.1
1448483.333,-0.12
1448486.111,-0.155
1448488.889,-0.16
1448491.667,-0.165
1448494.444,-0.175
1448497.222,-0.175
1448500,-0.2
1448502.778,-0.22
1448505.556,-0.225
1448508.333,-0.225
1448511.111,-0.23
1448513.889,-0.235
1448516.667,-0.235
1448519.444,-0.245
1448522.222,-0.25
1448525,-0.245
1448527.778,-0.245
1448530.556,-0.25
1448533.333,-0.25
1448536.111,-0.265
1448538.889,-0.255
1448541.667,-0.265
1448544.444,-0.26
1448547.222,-0.26
1448550,-0.27
1448552.778,-0.27
1448555.556,-0.275
1448558.333,-0.265
1448561.111,-0.26
1448563.889,-0.255
1448566.667,-0.265
1448569.444,-0.265
1448572.222,-0.26
1448575,-0.255
1448577.778,-0.255
1448580.556,-0.265
1448583.333,-0.265
1448586.111,-0.275
1448588.889,-0.275
1448591.667,-0.27
1448594.444,-0.26
1448597.222,-0.26
